6.5,0.63,-7,2.8394,21.461,2.3992,6.4128,1.1238,6.6561,0
6.5,0.63,-7,2.8394,21.461,2.3993,5.9153,0.4778,5.7202,0
6.5,0.63,-7.4,2.8312,21.462,2.3991,9.1332,2.7169,9.5079,1
6.5,-0.64,7.2,1.8558,21.462,2.3995,5.148,2.5424,5.4401,1
6.5,-0.625,7,1.8668,21.462,2.399,4.2436,3.79,4.2131,0
6.5,0.7375,-7.3,2.9407,21.462,2.3999,5.3869,2.3779,5.6827,1
6.5,0.715,-7,2.9244,21.462,2.3993,4.1048,1.3091,4.2381,0
6.5,0.63,-7,2.8395,21.462,2.3992,5.5152,0,0,0
6.5,0.63,-7,2.8395,21.462,2.399,5.0443,0,0,0
6.5,-0.575,7,1.9167,21.462,2.3995,5.0347,0,0,0
6.5,0.63,-7.4,2.8313,21.463,2.3991,9.3754,2.8622,9.5336,1
6.5,0.63,-7.4,2.8313,21.463,2.3992,8.7435,2.4165,9.0216,1
6.5,-0.725,7.4,1.7749,21.463,2.3996,4.279,2.3401,4.558,1
6.5,-0.6325,7.1,1.8612,21.463,2.3993,4.6713,2.7961,4.984,0
6.5,0.795,-7.4,2.9963,21.463,2.3994,4.069,2.1181,4.4152,1
6.5,0.73,-7.2,2.9355,21.463,2.3994,5.0138,2.0753,5.3944,1
6.5,0.7225,-7.1,2.9301,21.463,2.3992,4.5042,1.408,4.6622,0
6.5,0.69,-7.2,2.8954,21.463,2.3994,5.286,1.1453,5.4158,0
6.5,-0.5975,7.3,1.9003,21.463,2.3988,6.3783,2.5406,6.7102,1
6.5,-0.59,7.2,1.9058,21.463,2.3991,5.8949,3.0915,6.1098,0
6.5,-0.5825,7.1,1.9112,21.463,2.3992,5.4824,3.8493,5.7714,0
6.5,0.83,-7.5,3.0292,21.463,2.3993,3.4855,2.1673,3.5961,1
6.5,-0.78,7.5,1.722,21.463,2.3988,3.3216,2.3071,3.5948,1
6.5,-0.74,7.5,1.762,21.463,2.3992,3.4551,2.5659,3.7951,1
6.5,-0.7475,7.7,1.7586,21.464,2.3993,5.5862,0.9897,5.5333,0
6.5,-0.7325,7.5,1.7694,21.464,2.3994,4.7003,2.1311,4.9575,1
6.5,-0.6475,7.3,1.8502,21.464,2.3991,5.5774,2.393,5.8591,1
6.5,0.81,-7.6,3.0072,21.464,2.3993,4.914,2.4167,5.2095,1
6.5,0.69,-7.2,2.8956,21.464,2.3997,6.6036,2.4061,6.8805,1
6.5,0.69,-7.2,2.8956,21.464,2.3991,6.1434,2.2628,6.43,1
6.5,0.85,-7.5,3.0493,21.464,2.399,3.4899,2.4038,3.7692,1
6.5,0.87,-7.5,3.0693,21.464,2.3994,3.5002,2.4378,3.7704,1
6.5,0.87,-7.5,3.0693,21.464,2.3993,3.2517,2.4145,3.5445,1
6.5,0.89,-7.5,3.0893,21.464,2.3991,3.466,2.7246,3.7232,1
6.5,-0.78,7.5,1.7219,21.464,2.3989,3.3442,2.3661,3.6343,1
6.5,-0.76,7.5,1.7418,21.464,2.3987,3.427,2.4425,3.7443,1
6.5,-0.76,7.5,1.7419,21.464,2.3988,3.337,2.4934,3.6125,1
6.5,-0.76,7.5,1.7419,21.464,2.3993,3.1754,2.4039,3.4586,1
6.5,-0.74,7.5,1.7619,21.464,2.3991,3.3038,2.6423,3.5853,1
6.5,0.63,-7.4,2.8314,21.465,2.399,8.8817,2.4372,9.174,1
6.5,-0.74,7.6,1.7639,21.465,2.3992,5.1446,1.5145,5.3344,0
6.5,-0.685,7.8,1.823,21.465,2.3995,4.2645,0,0,0
6.5,0.8025,-7.5,3.0019,21.465,2.3996,4.5698,2.4045,4.8652,1
6.5,0.775,-7.8,2.9681,21.465,2.3993,4.0919,0,0,0
6.5,0.69,-7.2,2.8956,21.465,2.3991,5.7095,1.5975,5.9021,0
6.5,-0.67,7.6,1.8338,21.465,2.3987,6.3078,2.1824,6.5619,1
6.5,-0.67,7.6,1.8339,21.465,2.3991,5.9889,2.3661,6.2838,1
6.5,-0.67,7.6,1.8338,21.465,2.3995,5.4382,2.4021,5.7193,1
6.5,-0.67,7.6,1.8339,21.465,2.3989,4.9975,2.763,5.3565,0
6.5,0.83,-7.5,3.0294,21.465,2.3996,3.3617,2.1573,3.4306,1
6.5,0.83,-7.5,3.0294,21.465,2.3995,3.215,2.0738,3.4942,1
6.5,0.85,-7.5,3.0493,21.465,2.3991,3.2947,2.3699,3.5953,1
6.5,0.85,-7.5,3.0493,21.465,2.3993,3.2443,2.3137,3.5553,1
6.5,0.87,-7.5,3.0694,21.465,2.399,3.3504,2.4509,3.6242,1
6.5,0.87,-7.5,3.0694,21.465,2.3994,3.2342,2.4133,3.5273,1
6.5,0.89,-7.5,3.0894,21.465,2.3996,3.3632,2.6599,3.6318,1
6.5,0.89,-7.5,3.0894,21.465,2.399,3.3207,2.5374,3.6055,1
6.5,0.89,-7.5,3.0894,21.465,2.3994,3.2062,2.4536,3.502,1
6.5,-0.8,7.5,1.7018,21.465,2.3988,3.452,1.7759,3.6059,0
6.5,-0.8,7.5,1.7018,21.465,2.399,3.238,2.1776,3.4433,1
6.5,-0.78,7.5,1.7218,21.465,2.3994,3.4741,2.2751,3.6992,1
6.5,-0.76,7.5,1.7418,21.465,2.399,3.3903,2.4289,3.6856,1
6.5,-0.74,7.5,1.7618,21.465,2.3991,3.4083,2.4413,3.704,1
6.5,-0.6925,7.9,1.8175,21.466,2.3991,4.7182,3.7562,4.4435,0
6.5,0.8175,-7.7,3.0129,21.466,2.399,5.3882,2.5807,5.6663,1
6.5,0.79,-8,2.9791,21.466,2.399,4.88,1.5025,5.0714,0
6.5,-0.635,7.8,1.8729,21.466,2.3993,5.0206,0,0,0
6.5,0.83,-7.5,3.0295,21.466,2.3992,3.2808,2.1261,3.3466,1
6.5,0.85,-7.5,3.0495,21.466,2.3995,3.4113,2.3417,3.7131,1
6.5,-0.8,7.5,1.7016,21.466,2.3994,3.3715,2.0086,3.622,1
6.5,-0.8,7.5,1.7017,21.466,2.3993,3.3009,2.2333,3.6,1
6.5,-0.78,7.5,1.7217,21.466,2.3996,3.296,2.3209,3.5927,1
6.5,-0.74,7.5,1.7617,21.466,2.3993,3.2448,2.7965,3.5181,1
6.5,-0.785,8.2,1.7312,21.467,2.3992,4.2825,2.427,4.5656,1
6.5,-0.7,8,1.812,21.467,2.3997,5.1606,2.832,5.3568,1
6.5,0.7975,-8.1,2.9846,21.467,2.3991,5.4104,1.8267,5.7628,0
6.5,0.7825,-7.9,2.9738,21.467,2.3996,4.5266,0,0,0
6.5,-0.6425,7.9,1.8674,21.467,2.3989,5.4697,0,0,0
6,1.16,-10,3.2933,21.468,2.3992,5.2697,4.1403,4.935,0
6,-1.02,10,1.5479,21.468,2.3992,5.252,2.1077,5.4586,1
6,1.02,-10,3.1533,21.468,2.3995,6.5772,2.4076,6.846,1
6,1.02,-10,3.1533,21.468,2.399,6.4944,2.4841,6.7762,1
6,1.04,-10,3.1733,21.468,2.3997,6.6515,2.9495,6.8389,0
6,-0.94,10,1.6279,21.468,2.3991,6.5784,2.2097,6.8556,1
6,-0.92,10,1.648,21.468,2.3992,6.579,2.3627,6.8618,1
6,-0.92,10,1.6479,21.468,2.399,6.3195,2.4847,6.5864,1
6,-0.9,10,1.6679,21.468,2.3992,6.604,2.4378,6.8782,1
6,1.01,-10,3.1433,21.468,2.3988,6.1146,2.2048,6.397,1
6,1.01,-10,3.1434,21.468,2.399,6.0925,2.2513,6.4164,1
6,1.03,-10,3.1633,21.468,2.3995,6.2356,2.4081,6.5255,1
6,1.03,-10,3.1633,21.468,2.3991,6.0853,2.3675,6.3654,1
6,1.05,-10,3.1833,21.468,2.3989,6.176,2.4891,6.4525,1
6,1.05,-10,3.1833,21.468,2.3993,5.9432,2.4028,6.2296,1
6,-0.98,10,1.5878,21.468,2.3989,6.2263,1.6264,6.3448,0
6,-0.96,10,1.608,21.468,2.3995,6.2765,1.854,6.4754,0
6,-0.94,10,1.6279,21.468,2.3992,6.157,2.3798,6.4384,1
6,-0.94,10,1.6279,21.468,2.3994,5.9582,2.4025,6.2393,1
6,1.02,-10,3.1533,21.468,2.3992,5.7359,1.7906,6.5192,0
6,1.04,-10,3.1733,21.468,2.3993,5.8411,2.3949,6.142,1
6,1.04,-10,3.1733,21.468,2.3989,5.6379,2.3613,5.9267,1
6,1.06,-10,3.1932,21.468,2.3991,5.8648,2.4246,6.1641,1
6,1.06,-10,3.1932,21.468,2.3991,5.6142,2.3625,5.9087,1
6,-1,10,1.5679,21.468,2.3993,5.6015,2.1009,5.8605,1
6,-0.98,10,1.5879,21.468,2.3989,5.7352,2.235,6.0164,1
6,-0.96,10,1.6079,21.468,2.3998,5.665,2.4864,5.9985,1
6,-0.94,10,1.6279,21.468,2.3991,5.8054,2.7422,6.169,1
6,1.03,-10,3.1633,21.468,2.3987,5.2467,1.3273,5.3913,0
6,1.03,-10,3.1633,21.468,2.3993,5.2746,1.3899,6.2112,0
6,1.07,-10,3.2033,21.468,2.3994,5.4918,2.2395,5.7746,1
6,1.07,-10,3.2034,21.468,2.3994,5.4729,2.3976,5.7689,1
6,1.07,-10,3.2033,21.468,2.3994,5.3721,2.3585,5.6619,1
6,1.09,-10,3.2233,21.468,2.3996,5.2586,2.4149,5.5538,1
6,-1.03,10,1.5379,21.468,2.3995,5.4004,2.305,5.6806,1
6,-1.03,10,1.5379,21.468,2.3991,5.2875,1.5535,5.3756,0
6,-0.99,10,1.578,21.468,2.3987,5.4403,2.374,5.7244,1
6,-0.99,10,1.578,21.468,2.3992,5.2917,2.3832,5.5742,1
6,-0.97,10,1.598,21.468,2.3993,5.3164,2.3675,5.6327,1
6,1.04,-10,3.1733,21.468,2.3991,4.8594,0,0,0
6,1.06,-10,3.1933,21.468,2.3993,5.0788,2.0184,5.3167,1
6,1.1,-10,3.2333,21.468,2.3996,5.0872,2.4221,5.3801,1
6,-1.04,10,1.5279,21.468,2.3991,5.1167,1.5035,5.196,0
6,-1.04,10,1.5279,21.468,2.3993,5.0241,2.3069,5.3455,1
6,-1.04,10,1.5279,21.468,2.3995,4.8787,2.1956,5.1794,1
6,-1,10,1.568,21.468,2.3989,5.0778,2.4029,5.3667,1
6,-0.98,10,1.5879,21.468,2.3992,5.0106,2.8351,5.332,0
6,1.06,-10,3.1933,21.468,2.3991,4.738,1.0378,4.7998,0
6,1.08,-10,3.2133,21.468,2.399,4.7159,1.7499,5.0154,0
6,1.1,-10,3.2332,21.468,2.3991,4.7263,2.3475,5.0298,1
6,1.1,-10,3.2332,21.468,2.3991,4.548,1.8695,4.7372,0
6,1.12,-10,3.2533,21.468,2.3988,4.7278,2.4145,5.0209,1
6,1.12,-10,3.2533,21.468,2.3992,4.6614,2.3998,4.9581,1
6,-1.05,10,1.5179,21.468,2.3995,4.8146,2.121,5.0081,1
6,-1.03,10,1.5379,21.468,2.3994,4.754,2.3759,5.0415,1
6,-1.03,10,1.5379,21.468,2.3991,4.5896,2.3853,4.8903,1
6,-0.99,10,1.5779,21.468,2.3993,4.7843,2.685,5.0744,1
6,1.08,-10,3.2133,21.468,2.3995,4.3466,1.3345,5.3991,0
6,1.08,-10,3.2133,21.468,2.3994,4.2254,0,0,0
6,1.14,-10,3.2733,21.468,2.3995,4.4561,2.3725,4.7502,1
6,-1.06,10,1.5079,21.468,2.399,4.2458,2.367,4.5502,1
6,-1.04,10,1.5279,21.468,2.3989,4.4895,2.5961,4.7297,1
6,-1.04,10,1.528,21.468,2.3998,4.1902,2.7057,4.3683,1
6,-1.02,10,1.5479,21.468,2.3989,4.3008,2.6877,4.5847,1
6,1.12,-10,3.2533,21.468,2.3993,3.8963,1.5477,4.0878,0
6,1.16,-10,3.2932,21.468,2.3992,4.0654,2.4161,4.3613,1
6,-1.08,10,1.4879,21.468,2.3993,4.1309,2.3136,4.4255,1
6,-1.06,10,1.5079,21.468,2.3991,4.1809,2.3861,4.4686,1
6,-1.04,10,1.5279,21.468,2.3993,4.1358,2.4404,4.4248,1
6,-1.04,10,1.5278,21.468,2.3992,4.0224,2.8135,4.2257,1
6,-1.04,10,1.5279,21.468,2.3989,3.8514,2.8112,4.2265,0
6,-1.02,10,1.5479,21.468,2.3992,4.1764,3.0036,4.6208,0
6,-1.02,10,1.5479,21.468,2.3992,4.0339,3.0347,4.2874,0
6,-1.02,10,1.5479,21.468,2.3992,3.9195,0,0,0
6,1.14,-10,3.2732,21.468,2.3992,3.52,0,0,0
6,1.16,-10,3.2933,21.468,2.3989,3.5511,2.2657,3.8409,1
6,1.18,-10,3.3132,21.468,2.3996,3.8057,2.4165,4.1056,1
6,1.19,-10,3.3233,21.468,2.3991,3.8503,2.4387,4.1489,1
6,1.19,-10,3.3233,21.468,2.3996,3.7129,2.4167,3.9985,1
6,1.21,-10,3.3433,21.468,2.3996,3.7968,2.6015,4.1762,1
6,-1.09,10,1.4778,21.468,2.3992,3.722,2.4029,4.0318,1
6,-1.09,10,1.4779,21.468,2.3989,3.536,2.3915,3.8314,1
6,-1.07,10,1.4979,21.468,2.3991,3.8298,2.5151,4.1623,1
6,-1.07,10,1.498,21.468,2.3988,3.6776,0,0,0
6,-1.07,10,1.4979,21.468,2.3995,3.6294,2.5779,3.9044,1
6,-1.05,10,1.5178,21.468,2.3991,3.5405,0,0,0
6.5,-0.7925,8.3,1.7256,21.468,2.399,4.7004,2.3816,4.9874,1
6.5,-0.7075,8.1,1.8065,21.468,2.3993,5.5868,2.5807,5.8815,1
6.5,0.855,-8.2,3.0402,21.468,2.3992,4.0955,1.763,4.5729,0
6.5,-0.73,8.4,1.7902,21.468,2.3992,5.479,2.6307,5.7793,1
6.5,-0.6575,8.1,1.8564,21.468,2.3992,6.3367,2.9489,6.4937,0
6.5,-0.65,8,1.862,21.468,2.3997,5.8643,3.7382,5.792,0
6,1.07,-10,3.2035,21.469,2.3993,6.1172,2.8363,6.3237,1
6,0.1,0,2.4506,21.469,2.3992,6.1564,3.4014,6.2679,0
6,1.08,-10,3.2134,21.469,2.3992,5.2234,2.3048,5.5476,1
6,-0.02,0,2.3306,21.469,2.3993,5.2369,0.73263,5.0494,0
6,0.04,0,2.3906,21.469,2.3991,5.2693,2.3597,5.5606,1
6,0.08,0,2.4306,21.469,2.3993,5.2659,2.6623,5.5304,1
6,0.12,0,2.4706,21.469,2.3992,5.2558,4.2891,5.1197,0
6,1.04,-10,3.1734,21.469,2.3993,5.687,2.2157,5.9929,1
6,-0.02,0,2.3306,21.469,2.3994,5.6975,0.53255,5.5951,0
6,0.04,0,2.3906,21.469,2.3994,5.705,2.3518,5.9977,1
6,0.06,0,2.4106,21.469,2.3994,5.6866,2.4595,5.9622,1
6,0.12,0,2.4706,21.469,2.3992,5.6788,4.0033,5.5862,0
6,1.14,-10,3.2734,21.469,2.3991,4.8286,2.5548,5.0977,1
6,0.02,0,2.3706,21.469,2.3991,4.8001,2.1007,5.0645,1
6,0.1,0,2.4506,21.469,2.3993,4.8069,3.3778,4.9655,0
6,-0.02,0,2.3306,21.469,2.3992,4.4076,0.98175,4.4799,0
6,0.06,0,2.4106,21.469,2.3989,4.3678,2.4155,4.6579,1
6,0.1,0,2.4506,21.469,2.3991,4.4153,3.0812,4.6483,0
6,-1.04,10,1.5277,21.469,2.3993,4.418,2.3854,4.7121,1
6,0,0,2.3506,21.469,2.3992,3.9443,1.5576,4.1108,0
6,0.12,0,2.4706,21.469,2.3993,3.9604,3.8828,3.8145,0
6,-1.09,10,1.4778,21.469,2.3994,3.9866,2.2395,4.2462,1
6,1,-10,3.1335,21.469,2.3992,6.5345,2.4047,6.8247,1
6,1,-10,3.1333,21.469,2.3991,6.3811,2.1387,6.6876,1
6,1.06,-10,3.1934,21.469,2.3992,6.5887,3.0864,6.1908,0
6,1.06,-10,3.1934,21.469,2.3993,6.4995,2.7741,6.7741,1
6,-0.96,10,1.6078,21.469,2.399,6.5483,1.5419,6.6853,0
6,-0.96,10,1.6078,21.469,2.3991,6.3109,1.972,6.4986,1
6,-0.94,10,1.6278,21.469,2.3992,6.3609,2.1004,6.6001,1
6,-0.92,10,1.6479,21.469,2.3995,6.5212,2.3927,6.8513,1
6,-0.92,10,1.6478,21.469,2.399,6.3485,2.3881,6.6398,1
6,-0.9,10,1.6677,21.469,2.3991,6.458,2.4587,6.7942,1
6,-0.9,10,1.6679,21.469,2.3995,6.3138,2.689,6.6769,1
6,1.05,-10,3.1835,21.469,2.3993,5.9789,2.4243,6.2752,1
6,1.07,-10,3.2034,21.469,2.3993,6.179,2.6942,6.4461,1
6,1.07,-10,3.2034,21.469,2.3992,6.035,2.5373,6.2326,1
6,1.07,-10,3.2034,21.469,2.3993,5.9136,2.4508,6.1853,1
6,-0.98,10,1.5878,21.469,2.399,6.1277,2.2447,6.4239,1
6,-0.96,10,1.6078,21.469,2.3997,5.9883,2.3024,6.256,1
6,1.02,-10,3.1534,21.469,2.399,5.7444,1.748,6.1184,0
6,1.04,-10,3.1734,21.469,2.3996,5.7372,2.2574,6.0253,1
6,1.06,-10,3.1935,21.469,2.3989,5.7431,2.4327,6.0295,1
6,1.08,-10,3.2134,21.469,2.3992,5.7997,2.636,6.0536,1
6,1.08,-10,3.2135,21.469,2.3995,5.7194,2.6836,5.987,1
6,1.08,-10,3.2134,21.469,2.3991,5.588,2.526,5.8716,1
6,-1,10,1.5678,21.469,2.399,5.6809,1.7334,5.8351,0
6,-0.98,10,1.5877,21.469,2.3989,5.6926,2.3363,5.9701,1
6,-0.96,10,1.6077,21.469,2.3996,5.8283,2.3814,6.1119,1
6,-0.96,10,1.6078,21.469,2.3995,5.7221,2.4175,6.0229,1
6,-0.94,10,1.6277,21.469,2.3994,5.9146,2.3738,6.2094,1
6,1.05,-10,3.1835,21.469,2.3994,5.5088,2.1334,5.8046,1
6,1.07,-10,3.2033,21.469,2.399,5.2631,2.2771,5.5541,1
6,1.09,-10,3.2234,21.469,2.3996,5.5137,2.4485,5.7967,1
6,1.09,-10,3.2234,21.469,2.3992,5.4508,2.4419,5.7329,1
6,-1.03,10,1.5378,21.469,2.3992,5.5106,1.3596,5.682,0
6,-1.01,10,1.5578,21.469,2.3992,5.2182,2.25,5.4994,1
6,-0.97,10,1.5977,21.469,2.3994,5.5613,2.386,5.8569,1
6,-0.97,10,1.5977,21.469,2.3992,5.4122,2.5055,5.7701,1
6,-0.97,10,1.5977,21.469,2.3994,5.2798,2.598,5.5625,1
6,1.04,-10,3.1735,21.469,2.3992,5.0703,1.3432,5.9473,0
6,1.04,-10,3.1735,21.469,2.3993,4.9909,1.0468,6.5287,0
6,1.06,-10,3.1934,21.469,2.3994,4.9837,2.1938,5.3223,1
6,1.06,-10,3.1934,21.469,2.3992,4.9215,1.3786,5.133,0
6,1.1,-10,3.2334,21.469,2.3992,4.8897,2.3662,5.1963,1
6,-1.02,10,1.5478,21.469,2.399,5.019,2.3649,5.3142,1
6,1.06,-10,3.1934,21.469,2.3992,4.5776,0.7944,4.5818,0
6,1.08,-10,3.2133,21.469,2.3991,4.5385,1.6073,4.7894,0
6,1.1,-10,3.2334,21.469,2.3992,4.6857,2.127,4.989,1
6,1.12,-10,3.2534,21.469,2.3994,4.7062,2.4125,4.999,1
6,-1.05,10,1.5179,21.469,2.3995,4.7502,2.2361,5.0415,1
6,-1.01,10,1.5578,21.469,2.3992,4.5434,2.5971,4.8333,1
6,-0.99,10,1.5777,21.469,2.3993,4.8729,2.4279,5.1583,1
6,-0.99,10,1.5778,21.469,2.3992,4.6504,3.0624,4.7709,0
6,1.1,-10,3.2334,21.469,2.3994,4.3428,2.1959,4.6352,1
6,1.12,-10,3.2534,21.469,2.3989,4.3766,2.1222,4.5406,1
6,1.12,-10,3.2535,21.469,2.3989,4.1874,2.1785,4.5073,1
6,1.14,-10,3.2734,21.469,2.399,4.4074,2.4158,4.7074,1
6,1.14,-10,3.2733,21.469,2.3997,4.2891,2.3354,4.5837,1
6,1.14,-10,3.2735,21.469,2.3994,4.2413,2.4027,4.5345,1
6,-1.06,10,1.5078,21.469,2.399,4.2105,2.3786,4.4935,1
6,-1.02,10,1.5479,21.469,2.399,4.4587,2.5485,4.7434,1
6,-1.02,10,1.5478,21.469,2.3987,4.1916,2.7378,4.3941,1
6,-1,10,1.5678,21.469,2.3991,4.2095,2.9102,4.3339,0
6,1.1,-10,3.2334,21.469,2.3991,4.0032,0,0,0
6,1.1,-10,3.2333,21.469,2.3993,3.9509,0,0,0
6,1.1,-10,3.2334,21.469,2.3991,3.9027,0,0,0
6,1.12,-10,3.2535,21.469,2.3997,3.991,1.8025,4.2429,0
6,1.14,-10,3.2735,21.469,2.3991,3.9955,2.2407,4.2614,1
6,1.16,-10,3.2933,21.469,2.3991,4.1669,2.4208,4.4621,1
6,1.16,-10,3.2934,21.469,2.3994,3.9152,2.3339,4.2268,1
6,-1.08,10,1.4878,21.469,2.3993,3.9776,2.3692,4.2738,1
6,-1.02,10,1.5478,21.469,2.399,4.029,2.9079,4.2699,0
6,1.12,-10,3.2534,21.469,2.399,3.7092,0,0,0
6,1.14,-10,3.2735,21.469,2.3992,3.6562,0,0,0
6,1.16,-10,3.2934,21.469,2.3992,3.5717,2.273,3.8787,1
6,1.15,-10,3.2834,21.469,2.3994,3.7258,2.086,3.9159,1
6,1.17,-10,3.3034,21.469,2.3993,3.7105,2.3927,4.0039,1
6,1.17,-10,3.3034,21.469,2.3993,3.6626,2.2687,3.9061,1
6,1.21,-10,3.3434,21.469,2.3993,3.7123,2.5948,3.9854,1
6,1.21,-10,3.3435,21.469,2.3992,3.6057,2.4661,3.8794,1
6,-1.11,10,1.4578,21.469,2.3994,3.7744,2.2732,4.0881,1
6,-1.11,10,1.4578,21.469,2.3994,3.5713,2.3576,3.8689,1
6,-1.05,10,1.5177,21.469,2.3991,3.8243,2.7172,4.2875,0
6,0.16,-1.5,2.4784,21.469,2.3991,5.7498,1.6828,5.9301,0
6,0.16,-1.5,2.4784,21.469,2.3993,6.1063,2.1231,6.3814,1
6.5,-0.8,8.4,1.7201,21.469,2.3992,5.1446,2.0656,5.3768,1
6.5,0.8625,-8.3,3.0457,21.469,2.3995,4.5293,1.935,4.8707,0
6.5,0.77,-8.6,2.9469,21.469,2.399,5.709,0,0,0
6.5,-0.73,8.4,1.7901,21.469,2.399,6.3337,2.2287,6.5973,1
6,-0.02,0,2.3306,21.47,2.3992,6.1456,0.81922,5.9792,0
6,0,0,2.3506,21.47,2.3991,6.1372,1.5785,6.3011,0
6,0.02,0,2.3706,21.47,2.3993,6.1376,2.0993,6.3902,1
6,0.04,0,2.3906,21.47,2.399,6.1459,2.3937,6.4328,1
6,0.06,0,2.4106,21.47,2.3994,6.1571,2.3951,6.437,1
6,0.08,0,2.4306,21.47,2.3992,6.1312,2.8193,6.3704,1
6,0.12,0,2.4706,21.47,2.3994,6.1645,4.375,5.9529,0
6,-0.02,0,2.3306,21.47,2.3993,6.6036,0.6376,6.3019,0
6,0,0,2.3506,21.47,2.3994,6.5721,1.5296,6.7044,0
6,0.02,0,2.3706,21.47,2.3994,6.5852,2.0043,6.841,1
6,0.04,0,2.3906,21.47,2.3993,6.5947,2.3354,6.8795,1
6,0.06,0,2.4106,21.47,2.3992,6.5949,2.4561,6.8908,1
6,0.08,0,2.4306,21.47,2.3992,6.6057,2.9465,6.8235,0
6,0,0,2.3506,21.47,2.3993,5.2575,1.463,5.3702,0
6,0.02,0,2.3706,21.47,2.3991,5.2423,2.1494,5.4828,1
6,0.06,0,2.4106,21.47,2.3992,5.2595,2.4556,5.5441,1
6,0.1,0,2.4506,21.47,2.3992,5.2641,3.3371,5.4458,0
6,0,0,2.3506,21.47,2.3993,5.6932,1.4155,5.7918,0
6,0.02,0,2.3706,21.47,2.3993,5.6835,2.0952,5.9498,1
6,0.08,0,2.4306,21.47,2.3993,5.6976,2.7292,5.9614,1
6,0.1,0,2.4506,21.47,2.3992,5.6655,3.2885,5.8295,0
6,-0.02,0,2.3306,21.47,2.3992,4.8243,0.70855,4.6386,0
6,0,0,2.3506,21.47,2.3992,4.7948,1.5563,4.9245,0
6,0.04,0,2.3906,21.47,2.3993,4.8412,2.3546,5.1321,1
6,0.06,0,2.4106,21.47,2.3993,4.8093,2.4341,5.0965,1
6,0.08,0,2.4306,21.47,2.3995,4.8117,2.7042,5.0463,1
6,0.12,0,2.4706,21.47,2.399,4.7923,4.2287,4.7916,0
6,0,0,2.3506,21.47,2.399,4.3945,1.5246,4.5652,0
6,0.02,0,2.3706,21.47,2.399,4.4042,2.1396,4.6662,1
6,0.04,0,2.3906,21.47,2.3993,4.3922,2.3725,4.6776,1
6,0.08,0,2.4306,21.47,2.3991,4.3958,2.6299,4.6808,1
6,0.12,0,2.4706,21.47,2.3992,4.3745,4.2275,4.3253,0
6,0.02,0,2.3706,21.47,2.3993,3.9682,2.2004,4.2663,1
6,0.04,0,2.3906,21.47,2.3992,3.9568,2.3852,4.2444,1
6,0.06,0,2.4106,21.47,2.3992,3.9223,2.4204,4.2176,1
6,0.08,0,2.4306,21.47,2.3993,3.9716,2.6258,4.2688,1
6,0.1,0,2.4506,21.47,2.3993,3.9665,3.3525,4.2331,0
6,-1.07,10,1.4977,21.47,2.3992,3.9758,2.3815,4.2626,1
6,1,-10,3.1336,21.47,2.3993,6.3083,2.3052,6.586,1
6,-0.96,10,1.6076,21.47,2.3992,6.489,2.2,6.5653,1
6,-0.94,10,1.6276,21.47,2.3995,6.3809,2.2803,6.6571,1
6,-0.94,10,1.6276,21.47,2.3994,6.0796,2.376,6.3505,1
6,-0.92,10,1.6476,21.47,2.3995,6.2442,2.4533,6.5237,1
6,-0.98,10,1.5877,21.47,2.3993,5.8824,2.2824,6.1483,1
6,1.05,-10,3.1836,21.47,2.3988,5.3423,2.1283,5.6526,1
6,-1.01,10,1.5576,21.47,2.3992,5.3855,2.1538,5.6404,1
6,-0.99,10,1.5776,21.47,2.3992,5.551,2.3693,5.8154,1
6,-1.02,10,1.5477,21.47,2.3988,5.1382,2.28,5.417,1
6,-0.98,10,1.5876,21.47,2.3993,4.894,2.8914,5.1441,0
6,1.1,-10,3.2337,21.47,2.3998,4.7818,2.3643,5.0709,1
6,-1.05,10,1.5177,21.47,2.3998,4.645,2.0872,4.8819,1
6,-1.01,10,1.5576,21.47,2.3995,4.7268,2.415,5.0209,1
6,1.1,-10,3.2336,21.47,2.3992,4.302,1.857,4.5312,0
6,1.1,-10,3.2336,21.47,2.3991,4.1099,1.2559,4.2339,0
6,1.12,-10,3.2535,21.47,2.3994,4.2284,2.0535,4.6586,0
6,1.12,-10,3.2536,21.47,2.3992,4.0134,1.954,4.2953,0
6,1.14,-10,3.2735,21.47,2.3994,3.7907,2.0299,4.1101,1
6,1.18,-10,3.3135,21.47,2.3998,3.601,2.2819,3.9019,1
6,-1.11,10,1.4577,21.47,2.3993,3.6043,2.3054,3.8866,1
6,-1.09,10,1.4776,21.47,2.3994,3.8119,2.3733,4.1079,1
6,-0.15,2,2.2435,21.47,2.3989,6.151,2.3617,6.4511,1
6,-0.16,1.9,2.2314,21.47,2.3994,4.5488,2.3522,4.8259,1
6,0.16,-1.5,2.4784,21.47,2.3994,4.8239,1.55,5.0567,0
6,0.16,-1.5,2.4784,21.47,2.3993,5.1284,1.6674,5.4118,0
6,0.16,-1.5,2.4784,21.47,2.399,5.3939,1.8093,5.5802,0
6.5,-0.8075,8.5,1.7147,21.47,2.3993,5.5376,2.1748,5.7117,1
6.5,0.8775,-8.5,3.0566,21.47,2.3992,5.3681,2.4187,5.6636,1
6.5,0.87,-8.4,3.0512,21.47,2.3992,4.947,2.2813,5.2456,1
6.5,-0.73,8.4,1.79,21.47,2.3993,5.9316,2.4151,6.2227,1
6,-0.02,0,2.3306,21.471,2.3992,3.9767,1.0959,3.7344,0
6,-0.2,2.5,2.2043,21.471,2.3993,5.6266,2.3983,5.9179,1
6,-0.2,2.5,2.2043,21.471,2.3991,5.3574,2.425,5.6352,1
6,-0.24,2.7,2.1686,21.471,2.3993,4.814,2.3862,5.1055,1
6,-0.16,1.9,2.2313,21.471,2.3989,4.781,2.3874,5.0707,1
6,-0.16,1.9,2.2314,21.471,2.3993,4.3319,2.3942,4.6164,1
6,0.16,-1.5,2.4785,21.471,2.3993,4.5138,1.7192,4.7209,0
6,0.16,-1.5,2.4784,21.471,2.3993,4.3501,1.1114,4.5474,0
6,0.16,-1.5,2.4784,21.471,2.3989,4.0287,1.842,4.2011,0
6.5,0.71,-8.8,2.8828,21.471,2.3991,9.4029,2.4507,9.6965,1
6.5,0.71,-8.8,2.8828,21.471,2.3987,8.9433,2.2481,9.2407,1
6.5,0.71,-8.8,2.8829,21.471,2.3991,8.6695,2.1653,8.9748,1
6.5,0.77,-8.6,2.947,21.471,2.3996,6.6083,0.8627,6.8256,0
6.5,0.77,-8.6,2.947,21.471,2.3994,6.1169,0,0,0
6.5,0.77,-8.6,2.9471,21.471,2.3988,5.2229,0,0,0
6.5,-0.73,8.4,1.79,21.471,2.3995,5.0557,3.5017,5.254,0
6,-0.2,2.5,2.2043,21.472,2.3994,6.1741,2.4042,6.4562,1
6,-0.2,2.5,2.2043,21.472,2.3994,5.8869,2.3816,6.1821,1
6,-0.15,2,2.2435,21.472,2.3994,5.9502,2.3945,6.2489,1
6,-0.25,3,2.165,21.472,2.3993,5.6271,2.421,5.9257,1
6,-0.15,2,2.2435,21.472,2.3995,5.6266,2.3988,5.9154,1
6,-0.15,2,2.2435,21.472,2.3991,5.3374,2.4034,5.6251,1
6,-0.24,2.7,2.1685,21.472,2.3993,4.5756,2.3945,4.8756,1
6,-0.24,2.7,2.1685,21.472,2.3991,4.0686,2.4099,4.3517,1
6,-0.16,1.9,2.2313,21.472,2.3994,4.0235,2.3978,4.3066,1
6,0.34,-3,2.6262,21.472,2.3991,4.5645,2.0877,4.8327,1
6.5,0.71,-8.8,2.8829,21.472,2.3994,9.1804,2.4098,9.4688,1
6.5,0.915,-9,3.0837,21.472,2.3993,4.091,0,0,0
6,-0.25,3,2.165,21.473,2.3992,6.1643,2.387,6.4548,1
6,-0.25,3,2.165,21.473,2.3992,5.8531,2.3923,6.1457,1
6,-0.3,3.5,2.1258,21.473,2.3994,5.6244,2.3912,5.9193,1
6,-0.32,3.5,2.1058,21.473,2.3994,4.3689,2.4357,4.6701,1
6,0.34,-3,2.6262,21.473,2.3989,4.8258,2.077,5.1571,1
6,0.34,-3,2.6262,21.473,2.3994,4.3339,2.1651,4.6089,1
6,0.34,-3,2.6262,21.473,2.3992,5.0366,2.3534,5.3276,1
6.5,-0.845,9,1.6873,21.473,2.3994,4.2524,2.8105,4.6059,0
6,-0.3,3.5,2.1258,21.474,2.3993,6.1546,2.3427,6.4786,1
6,-0.3,3.5,2.1258,21.474,2.3992,5.8542,2.3947,6.1442,1
6,-0.3,3.5,2.1258,21.474,2.3993,5.3177,2.4605,5.6033,1
6,-0.25,3,2.165,21.474,2.3995,5.4181,2.4204,5.7207,1
6,-0.24,2.7,2.1685,21.474,2.3994,4.3396,2.3994,4.6244,1
6,0.34,-3,2.6262,21.474,2.3992,4.0436,2.0954,4.3074,1
6,0.34,-3,2.6263,21.474,2.3988,6.1878,2.4022,6.4842,1
6.5,-0.8675,9.3,1.671,21.474,2.3994,5.6291,2.0319,5.7185,1
6.5,-0.86,9.2,1.6764,21.474,2.3996,5.162,2.1795,5.4579,1
6.5,-0.8525,9.1,1.6819,21.474,2.3994,4.7154,2.7248,4.8708,1
6.5,0.93,-9.2,3.0947,21.474,2.3991,4.9957,1.8714,5.2983,0
6.5,-0.79,9.2,1.7465,21.474,2.3993,5.9445,2.7943,6.283,0
6.5,-0.79,9.2,1.7464,21.474,2.399,5.4625,3.8604,5.4875,0
6,-0.32,3.5,2.1057,21.475,2.3996,4.0583,2.5463,4.3638,1
6,0.34,-3,2.6263,21.475,2.3993,5.7865,2.3036,6.0333,1
6.5,0.9225,-9.1,3.0895,21.475,2.3991,4.5137,1.0791,5.5145,0
6.5,-0.79,9.2,1.7463,21.475,2.3995,6.4198,2.3652,6.6981,1
6.5,-0.79,9.2,1.7463,21.475,2.3994,5.0164,0,0,0
6,-0.32,3.5,2.1056,21.476,2.399,4.8055,2.3946,5.0979,1
6,-0.32,3.5,2.1056,21.476,2.3988,4.5687,2.4068,4.8641,1
6,0.52,-4.5,2.7739,21.476,2.3993,5.1363,2.4216,5.434,1
6,0.52,-4.5,2.7739,21.476,2.3992,5.4196,2.42,5.7112,1
6,0.34,-3,2.6263,21.476,2.3993,5.4813,2.3787,5.7651,1
6.5,0.9375,-9.3,3.1004,21.476,2.3992,5.42,2.4038,5.7081,1
6,-0.45,5,2.0082,21.477,2.3991,5.4243,2.4089,5.7145,1
6,-0.48,5,1.9781,21.477,2.3993,4.8455,2.4366,5.1371,1
6,-0.55,5,1.9082,21.477,2.3994,4.4205,1.2589,4.7069,0
6,-0.56,5,1.8981,21.477,2.3996,3.9628,1.275,3.9109,0
6,-0.4,4.3,2.043,21.477,2.3994,4.8452,2.3976,5.1421,1
6,-0.4,4.3,2.0429,21.477,2.399,4.2485,2.4159,4.5322,1
6,-0.4,4.3,2.0429,21.477,2.3994,4.0714,2.7453,4.3358,1
6,0.52,-4.5,2.7739,21.477,2.3995,4.8423,2.3786,5.1424,1
6.5,0.975,-9.8,3.1274,21.477,2.3992,4.0807,0,0,0
6.5,-1.1,10,1.4531,21.477,2.3994,3.2311,1.5427,2.923,0
6.5,-1.06,10,1.493,21.477,2.3994,3.4778,2.2418,3.7069,1
6.5,-1.06,10,1.493,21.477,2.3992,3.2482,2.3149,3.5733,1
6,-0.9,10,1.6675,21.478,2.399,6.1307,2.9097,6.3683,0
6,-0.96,10,1.6076,21.478,2.3993,6.1204,2.2374,6.3914,1
6,-0.94,10,1.6275,21.478,2.3991,6.1152,2.3838,6.4073,1
6,0.95,-10,3.0837,21.478,2.399,6.5951,1.1347,6.7719,0
6,1.04,-10,3.1737,21.478,2.3991,6.5929,2.7259,6.7546,1
6,-0.86,10,1.7075,21.478,2.3991,6.5963,3.3039,6.9593,0
6,-0.95,10,1.6175,21.478,2.3992,6.597,2.1254,6.861,1
6,1.06,-10,3.1937,21.478,2.3992,5.2599,2.2012,5.5348,1
6,-1,10,1.5675,21.478,2.3992,5.2547,2.3763,5.5479,1
6,-0.5,5,1.9581,21.478,2.3992,5.2532,2.0914,5.5109,1
6,1.12,-10,3.2537,21.478,2.3995,5.715,3.4498,5.6082,0
6,-0.98,10,1.5876,21.478,2.3993,5.7109,2.3317,5.9966,1
6,-0.96,10,1.6075,21.478,2.3991,5.6777,2.4232,5.9689,1
6,-1.03,10,1.5375,21.478,2.3992,5.6954,1.1065,5.4621,0
6,1.16,-10,3.2936,21.478,2.3993,4.8198,2.815,4.938,1
6,1.08,-10,3.2137,21.478,2.3993,4.3834,0.81083,4.6287,0
6,1.1,-10,3.2336,21.478,2.3992,4.3793,1.6777,4.7622,0
6,1.2,-10,3.3337,21.478,2.3994,4.4267,3.6189,4.4626,0
6,-0.53,5,1.9281,21.478,2.3991,3.9407,2.2792,4.225,1
6,-0.46,5,1.9981,21.478,2.3991,5.8845,2.3793,6.1772,1
6,0.48,-5,2.7231,21.478,2.3989,5.8686,0.4939,5.9555,0
6,0.5,-5,2.7431,21.478,2.3992,5.5773,1.6914,5.7867,0
6,-0.43,5,2.0281,21.478,2.3991,5.6746,2.788,5.9172,1
6,-0.41,5,2.0481,21.478,2.3993,5.5983,2.9571,5.8685,0
6,0.5,-5,2.7431,21.478,2.3989,5.5181,1.5269,5.4947,0
6,0.58,-5,2.8231,21.478,2.3991,5.0062,2.4085,5.2999,1
6,0.58,-5,2.8231,21.478,2.399,4.6236,2.3972,4.9134,1
6,-0.46,5,1.9981,21.478,2.3989,4.6886,2.4729,4.9805,1
6,0.58,-5,2.8231,21.478,2.3992,4.3238,2.3834,4.6206,1
6,0.6,-5,2.8431,21.478,2.3994,4.3249,2.4068,4.6206,1
6,0.6,-5,2.8431,21.478,2.3993,4.2178,2.4319,4.5107,1
6,0.62,-5,2.8631,21.478,2.3993,4.2429,2.5701,4.5466,1
6,-0.55,5,1.9081,21.478,2.3992,4.5275,1.1047,4.4612,0
6,-0.55,5,1.9081,21.478,2.3992,4.2286,1.8288,4.561,0
6,0.58,-5,2.8231,21.478,2.3991,4.0469,2.3669,4.3437,1
6,0.6,-5,2.8431,21.478,2.399,3.9758,2.3717,4.2799,1
6,0.62,-5,2.8631,21.478,2.3992,4.0424,2.5371,4.3891,1
6,0.64,-5,2.8831,21.478,2.3993,4.1356,3.0396,4.3572,0
6,-0.54,5,1.9181,21.478,2.3993,3.8764,2.1346,4.1368,1
6,-0.52,5,1.9381,21.478,2.3994,4.1115,2.3727,4.3916,1
6,-0.52,5,1.9381,21.478,2.3992,3.9439,2.3151,4.2373,1
6,0.58,-5,2.8231,21.478,2.3993,3.6552,2.1507,3.9312,1
6,0.6,-5,2.8431,21.478,2.3991,3.5839,2.3338,3.842,1
6,0.64,-5,2.8831,21.478,2.3993,3.3667,2.4262,3.6549,1
6,0.66,-5,2.9031,21.478,2.3989,3.3771,0,0,0
6,-0.4,4.3,2.0429,21.478,2.399,4.5098,2.4328,4.8031,1
6,0.52,-4.5,2.774,21.478,2.3993,4.06,2.3611,4.3257,1
6,0.52,-4.5,2.774,21.478,2.3989,5.7763,2.442,6.0678,1
6,0.52,-4.5,2.774,21.478,2.3992,6.1204,2.5865,6.3885,1
6.5,0.79,-10.2,2.9382,21.478,2.3992,9.175,2.1747,9.4527,1
6.5,0.9825,-9.9,3.1329,21.478,2.3994,4.4821,0,0,0
6.5,1.17,-10,3.3182,21.478,2.3991,3.4626,2.6669,3.7229,1
6.5,1.17,-10,3.3183,21.478,2.3991,3.3068,2.6025,3.5738,1
6.5,1.21,-10,3.3584,21.478,2.3992,3.3592,3.6568,3.364,0
6.5,-1.1,10,1.4529,21.478,2.399,3.3321,1.6501,3.2978,0
6.5,-1.06,10,1.4929,21.478,2.3991,3.2838,2.36,3.5847,1
6,0.98,-10,3.1137,21.479,2.3993,6.1308,1.3359,6.675,0
6,1,-10,3.1338,21.479,2.3992,6.1292,2.0109,6.3708,1
6,0.46,-5,2.7031,21.479,2.3992,6.1226,0.53815,5.7841,0
6,0.5,-5,2.7432,21.479,2.3993,6.1367,2.0418,6.3871,1
6,0.52,-5,2.7632,21.479,2.3993,6.1456,2.289,6.4486,1
6,0.54,-5,2.7832,21.479,2.3991,6.1304,2.424,6.4133,1
6,0.56,-5,2.8032,21.479,2.3993,6.1111,2.6138,6.3627,1
6,0.58,-5,2.8232,21.479,2.3991,6.1366,2.9458,6.3163,0
6,0.6,-5,2.8432,21.479,2.3994,6.1479,3.7705,6.1059,0
6,-0.86,10,1.7075,21.479,2.399,6.1214,4.5335,6.4279,0
6,-0.98,10,1.5875,21.479,2.3992,6.1125,1.9053,6.2525,0
6,-0.4,5,2.058,21.479,2.3993,6.1608,2.8716,6.4359,0
6,-0.38,5,2.078,21.479,2.399,6.1301,3.8289,6.3082,0
6,-0.5,5,1.958,21.479,2.3991,6.143,1.1678,6.0157,0
6,-0.48,5,1.978,21.479,2.3993,6.1478,1.914,6.3563,0
6,-0.44,5,2.018,21.479,2.3993,6.1446,2.3937,6.4313,1
6,1.02,-10,3.1537,21.479,2.3992,6.5676,2.49,6.8657,1
6,0.495,-5,2.7382,21.479,2.3991,6.5876,2.0405,6.8173,1
6,0.48,-5,2.7232,21.479,2.3993,6.6094,1.479,6.9057,0
6,0.585,-5,2.8282,21.479,2.3992,6.581,3.8956,6.4936,0
6,0.57,-5,2.8132,21.479,2.3992,6.6197,3.1561,6.6671,0
6,0.54,-5,2.7832,21.479,2.3992,6.5665,2.4936,6.8557,1
6,-0.84,10,1.7275,21.479,2.3993,6.6116,4.2699,6.6171,0
6,-0.93,10,1.6375,21.479,2.3993,6.6147,2.1686,6.8612,1
6,-0.4,5,2.058,21.479,2.399,6.5757,2.7013,6.8517,1
6,-0.38,5,2.078,21.479,2.3993,6.5975,3.1643,6.8392,0
6,-0.36,5,2.098,21.479,2.3992,6.5724,4.1919,6.7699,0
6,-0.34,5,2.118,21.479,2.3991,6.5827,0,0,0
6,-0.48,5,1.978,21.479,2.3993,6.5821,0.94847,6.5121,0
6,-0.44,5,2.018,21.479,2.3992,6.5882,2.3434,6.8703,1
6,-0.42,5,2.038,21.479,2.3991,6.6012,2.3993,6.8967,1
6,0.52,-5,2.7631,21.479,2.3993,5.2892,1.4658,5.5544,0
6,0.54,-5,2.7832,21.479,2.3994,5.2379,2.1941,5.5156,1
6,0.56,-5,2.8032,21.479,2.3993,5.2569,2.3784,5.5534,1
6,0.64,-5,2.8832,21.479,2.3991,5.2498,4.1458,5.1238,0
6,-0.98,10,1.5875,21.479,2.3996,5.266,2.4294,5.5618,1
6,-1.04,10,1.5275,21.479,2.3992,5.2547,1.9038,5.4005,0
6,-0.45,5,2.008,21.479,2.3994,5.2849,2.5242,5.5608,1
6,-0.43,5,2.028,21.479,2.3991,5.2874,2.7945,5.4808,1
6,-0.41,5,2.048,21.479,2.3991,5.2439,3.3743,5.3349,0
6,-0.39,5,2.068,21.479,2.3993,5.2489,4.2708,5.0767,0
6,-0.52,5,1.938,21.479,2.3993,5.252,1.4503,5.0033,0
6,-0.48,5,1.978,21.479,2.3992,5.2511,2.3237,5.5416,1
6,-0.46,5,1.998,21.479,2.3992,5.2466,2.4174,5.5495,1
6,1.1,-10,3.2337,21.479,2.3993,5.6984,2.9756,5.8758,0
6,1.02,-10,3.1538,21.479,2.399,5.678,2.0176,5.9785,1
6,0.47,-5,2.7132,21.479,2.3993,5.7291,0.3587,5.5648,0
6,0.49,-5,2.7332,21.479,2.399,5.6766,0.84115,5.7882,0
6,0.51,-5,2.7531,21.479,2.3994,5.705,1.8257,5.9646,0
6,0.53,-5,2.7732,21.479,2.3994,5.7095,2.2264,5.9888,1
6,0.57,-5,2.8132,21.479,2.3991,5.7,2.5546,5.9969,1
6,0.61,-5,2.8532,21.479,2.3993,5.6952,3.6221,5.7057,0
6,-0.94,10,1.6275,21.479,2.3992,5.6682,2.6983,5.9287,1
6,-1.01,10,1.5575,21.479,2.3994,5.6942,1.6323,5.8303,0
6,-0.45,5,2.008,21.479,2.3992,5.6866,2.4945,5.961,1
6,-0.43,5,2.028,21.479,2.3993,5.6955,2.5764,5.9598,1
6,-0.41,5,2.048,21.479,2.3994,5.6739,3.2906,5.8987,0
6,-0.52,5,1.938,21.479,2.3994,5.6942,1.0171,5.5075,0
6,-0.5,5,1.9581,21.479,2.399,5.6855,1.7129,5.857,0
6,-0.46,5,1.9981,21.479,2.399,5.7033,2.3847,5.997,1
6,1.05,-10,3.1837,21.479,2.3992,4.8025,0.92995,5.8933,0
6,1.09,-10,3.2237,21.479,2.3992,4.8298,2.1907,5.0839,1
6,0.54,-5,2.7832,21.479,2.3995,4.8131,1.9933,5.0279,1
6,0.58,-5,2.8232,21.479,2.3992,4.8125,2.4156,5.1077,1
6,0.6,-5,2.8432,21.479,2.3992,4.826,2.6022,5.0974,1
6,0.62,-5,2.8632,21.479,2.3991,4.7918,2.9432,4.9534,0
6,0.64,-5,2.8832,21.479,2.3992,4.82,3.7636,4.7451,0
6,-1.03,10,1.5375,21.479,2.3991,4.8239,2.2605,5.0858,1
6,-0.46,5,1.9981,21.479,2.3992,4.8243,2.5849,5.1203,1
6,-0.44,5,2.018,21.479,2.3992,4.8125,2.9726,5.0387,0
6,-0.4,5,2.058,21.479,2.3991,4.805,4.0775,4.6134,0
6,-0.54,5,1.918,21.479,2.3991,4.8051,1.6315,4.6577,0
6,-0.52,5,1.938,21.479,2.3992,4.8258,1.6874,4.9851,0
6,-0.5,5,1.958,21.479,2.3992,4.8268,2.2813,5.115,1
6,-0.48,5,1.978,21.479,2.3993,4.8457,2.4061,5.131,1
6,1.06,-10,3.1937,21.479,2.3992,4.3963,0.314,4.2117,0
6,0.54,-5,2.7832,21.479,2.3991,4.4023,1.6616,4.5975,0
6,0.58,-5,2.8232,21.479,2.3994,4.3874,2.3322,4.6759,1
6,0.6,-5,2.8432,21.479,2.3992,4.3878,2.4317,4.6856,1
6,0.64,-5,2.8832,21.479,2.3991,4.3791,2.9442,4.5248,0
6,0.66,-5,2.9032,21.479,2.3994,4.4192,3.9216,4.402,0
6,-1.12,10,1.4475,21.479,2.3992,4.385,0.6742,4.0795,0
6,-1.08,10,1.4875,21.479,2.3992,4.3966,2.037,4.5795,1
6,-0.48,5,1.9781,21.479,2.3991,4.3918,2.4858,4.6759,1
6,-0.46,5,1.998,21.479,2.3992,4.3954,2.8264,4.6884,0
6,-0.56,5,1.898,21.479,2.3992,4.3959,1.3468,3.9113,0
6,-0.54,5,1.918,21.479,2.3991,4.3878,1.8459,4.6133,0
6,-0.5,5,1.9581,21.479,2.3993,4.3837,2.3662,4.6741,1
6,1.13,-10,3.2637,21.479,2.3993,3.9855,2.0311,4.3274,0
6,0.58,-5,2.8232,21.479,2.3994,3.9671,2.1758,4.2425,1
6,-1.05,10,1.5175,21.479,2.3992,3.9907,2.5145,4.2667,1
6,-1.03,10,1.5375,21.479,2.3992,3.9906,2.8535,4.2898,0
6,-1.15,10,1.4175,21.479,2.3993,3.9699,0,0,0
6,-1.13,10,1.4375,21.479,2.3992,3.9707,1.5458,3.9195,0
6,-0.48,5,1.978,21.479,2.3993,3.9557,2.5708,4.2604,1
6,-0.44,5,2.018,21.479,2.3992,3.9663,3.5817,3.9966,0
6,-0.55,5,1.908,21.479,2.3992,3.9456,2.1212,4.1677,1
6,-0.49,5,1.9681,21.479,2.3994,3.9991,2.4452,4.2848,1
6,0.48,-5,2.7232,21.479,2.3993,6.643,1.4562,6.8413,0
6,0.48,-5,2.7232,21.479,2.3992,6.4366,1.4484,6.5353,0
6,0.5,-5,2.7432,21.479,2.3994,6.5605,2.3105,6.8604,1
6,0.5,-5,2.7432,21.479,2.3989,6.2908,1.8938,6.6405,0
6,0.52,-5,2.7632,21.479,2.3992,6.5791,2.35,6.8686,1
6,0.52,-5,2.7632,21.479,2.3994,6.4058,2.1569,6.6611,1
6,0.54,-5,2.7832,21.479,2.3991,6.5791,2.6529,6.8368,1
6,0.54,-5,2.7832,21.479,2.3991,6.5003,2.4858,6.7955,1
6,0.54,-5,2.7832,21.479,2.3991,6.4413,2.4418,6.7326,1
6,0.54,-5,2.7832,21.479,2.3992,6.3092,2.4148,6.5907,1
6,0.52,-5,2.7632,21.479,2.3992,6.2258,2.2312,6.5245,1
6,0.52,-5,2.7632,21.479,2.3994,6.1236,2.2937,6.3933,1
6,0.54,-5,2.7831,21.479,2.399,6.1561,2.4026,6.4555,1
6,0.54,-5,2.7832,21.479,2.3993,6.1211,2.4104,6.4138,1
6,0.54,-5,2.7832,21.479,2.3992,6.0343,2.3468,6.2976,1
6,0.54,-5,2.7831,21.479,2.3991,6.018,2.3555,6.2989,1
6,-0.44,5,2.018,21.479,2.399,6.0926,2.403,6.3939,1
6,-0.44,5,2.018,21.479,2.3993,6.0824,2.3933,6.368,1
6,-0.44,5,2.018,21.479,2.399,5.9528,2.4475,6.269,1
6,-0.42,5,2.038,21.479,2.3989,6.0093,2.4673,6.2925,1
6,-0.4,5,2.0581,21.479,2.399,6.2152,3.1772,6.3604,0
6,-0.4,5,2.058,21.479,2.3989,6.0919,2.825,6.3513,1
6,-0.4,5,2.0581,21.479,2.3993,5.9804,3.4967,6.0759,0
6,0.5,-5,2.7431,21.479,2.3994,5.7706,1.4457,6.0723,0
6,0.5,-5,2.7432,21.479,2.3991,5.7596,1.7655,5.9817,0
6,0.52,-5,2.7632,21.479,2.3992,5.8265,2.1538,6.0934,1
6,0.52,-5,2.7631,21.479,2.3992,5.6144,1.9449,5.8743,0
6,0.54,-5,2.7832,21.479,2.3992,5.84,2.3523,6.1183,1
6,0.54,-5,2.7832,21.479,2.3988,5.6596,2.3586,5.9555,1
6,-0.47,5,1.9881,21.479,2.3994,5.8804,2.3473,6.1711,1
6,-0.47,5,1.988,21.479,2.3995,5.7262,2.2821,5.9996,1
6,-0.47,5,1.988,21.479,2.3992,5.6544,2.2395,5.9267,1
6,-0.45,5,2.008,21.479,2.3995,5.8417,2.383,6.1383,1
6,-0.45,5,2.0081,21.479,2.3991,5.8083,2.3922,6.0937,1
6,-0.45,5,2.008,21.479,2.399,5.7028,2.4002,5.9847,1
6,-0.45,5,2.008,21.479,2.399,5.607,2.4102,5.8962,1
6,-0.41,5,2.048,21.479,2.399,5.8786,2.7793,6.1303,1
6,0.5,-5,2.7432,21.479,2.3993,5.3993,0.5934,5.6887,0
6,0.5,-5,2.7432,21.479,2.3986,5.2421,1.0614,5.2098,0
6,0.52,-5,2.7632,21.479,2.3992,5.3467,1.8954,5.6398,0
6,0.56,-5,2.8032,21.479,2.3991,5.2107,2.4016,5.5031,1
6,-0.47,5,1.9881,21.479,2.3993,5.5554,2.3744,5.849,1
6,-0.47,5,1.9881,21.479,2.3992,5.3447,2.3856,5.6339,1
6,-0.45,5,2.008,21.479,2.3992,5.5589,2.4574,5.8446,1
6,-0.45,5,2.008,21.479,2.3995,5.3535,2.4919,5.6346,1
6,-0.45,5,2.0081,21.479,2.399,5.271,2.41,5.5587,1
6,-0.43,5,2.028,21.479,2.3996,5.4922,2.8254,5.7053,1
6,-0.43,5,2.028,21.479,2.399,5.3659,3.1827,5.6091,0
6,-0.43,5,2.0281,21.479,2.399,5.2802,2.8965,5.5539,0
6,-0.41,5,2.048,21.479,2.399,5.4613,3.2756,5.6409,0
6,0.52,-5,2.7631,21.479,2.3989,5.0503,1.7849,5.1058,0
6,0.52,-5,2.7631,21.479,2.3994,4.9729,1.5506,5.3644,0
6,0.54,-5,2.7832,21.479,2.3993,5.0729,1.8973,5.2804,0
6,0.54,-5,2.7832,21.479,2.3994,4.96,2.14,5.24,1
6,0.56,-5,2.8032,21.479,2.399,5.1546,2.3326,5.4563,1
6,0.56,-5,2.8032,21.479,2.3988,5.095,2.3776,5.3964,1
6,0.56,-5,2.8032,21.479,2.3991,5.0115,2.2221,5.2827,1
6,0.56,-5,2.8032,21.479,2.3992,4.9022,2.3122,5.1988,1
6,0.58,-5,2.8232,21.479,2.3992,5.1506,2.4505,5.4293,1
6,-0.5,5,1.958,21.479,2.3991,5.1878,2.1636,5.4567,1
6,-0.5,5,1.958,21.479,2.3993,4.9969,2.1243,5.217,1
6,-0.48,5,1.978,21.479,2.3993,5.0589,2.3204,5.3711,1
6,-0.48,5,1.978,21.479,2.399,4.9264,2.4297,5.206,1
6,-0.46,5,1.998,21.479,2.3996,5.1683,2.511,5.4445,1
6,-0.46,5,1.9981,21.479,2.3993,5.1457,2.4183,5.4295,1
6,-0.44,5,2.018,21.479,2.399,5.1882,2.6305,5.4676,1
6,-0.44,5,2.018,21.479,2.3992,5.1079,2.9593,5.3196,0
6,0.54,-5,2.7832,21.479,2.3992,4.8209,1.6278,4.9654,0
6,0.54,-5,2.7832,21.479,2.399,4.7234,1.7971,4.9718,0
6,0.56,-5,2.8032,21.479,2.3988,4.7123,2.3456,5.0074,1
6,0.56,-5,2.8032,21.479,2.3993,4.5171,2.1432,4.7795,1
6,0.58,-5,2.8232,21.479,2.3992,4.8169,2.4089,5.1054,1
6,0.58,-5,2.8232,21.479,2.3991,4.5431,2.3736,4.8339,1
6,0.6,-5,2.8432,21.479,2.3993,4.8486,2.5743,5.1219,1
6,0.6,-5,2.8432,21.479,2.3996,4.7728,2.5417,5.0806,1
6,0.6,-5,2.8431,21.479,2.399,4.6159,2.5161,4.9042,1
6,-0.52,5,1.938,21.479,2.3989,4.8293,2.2667,5.0682,1
6,-0.5,5,1.9581,21.479,2.399,4.5461,2.372,4.8376,1
6,-0.48,5,1.978,21.479,2.3994,4.7324,2.3962,5.0261,1
6,-0.48,5,1.978,21.479,2.3997,4.6408,2.4291,4.921,1
6,-0.46,5,1.998,21.479,2.3996,4.5984,2.4783,4.8942,1
6,0.56,-5,2.8032,21.479,2.3989,4.4693,2.1108,4.7694,1
6,0.56,-5,2.8032,21.479,2.3989,4.3202,1.8122,4.7509,0
6,-0.51,5,1.948,21.479,2.3991,4.4229,2.3614,4.7093,1
6,-0.51,5,1.948,21.479,2.3993,4.3329,2.2506,4.6091,1
6,-0.49,5,1.968,21.479,2.3991,4.3795,2.3935,4.665,1
6,-0.49,5,1.968,21.479,2.3989,4.2097,2.4178,4.49,1
6,0.58,-5,2.8232,21.479,2.3989,3.8413,2.2601,4.1239,1
6,0.6,-5,2.8432,21.479,2.3995,3.9068,2.3959,4.1915,1
6,0.62,-5,2.8632,21.479,2.3992,3.9337,2.462,4.2299,1
6,0.64,-5,2.8831,21.479,2.3986,4.0424,2.7055,4.3663,1
6,0.64,-5,2.8832,21.479,2.3992,3.952,2.6809,4.2187,1
6,0.64,-5,2.8831,21.479,2.3992,3.8762,2.5394,4.2026,1
6,-0.56,5,1.898,21.479,2.3991,4.1038,1.4729,4.1412,0
6,-0.56,5,1.898,21.479,2.3994,3.8677,2.0611,4.076,1
6,-0.54,5,1.918,21.479,2.3996,4.0732,2.1593,4.3244,1
6,-0.52,5,1.9381,21.479,2.399,3.9715,2.2982,4.2617,1
6,-0.5,5,1.958,21.479,2.3988,3.8315,2.4259,4.1332,1
6,0.58,-5,2.8232,21.479,2.3993,3.7221,2.0655,3.8842,1
6,0.6,-5,2.8432,21.479,2.3989,3.8004,2.3249,4.1263,1
6,0.6,-5,2.8432,21.479,2.3992,3.5079,2.3452,3.8045,1
6,0.62,-5,2.8632,21.479,2.3991,3.8282,2.4373,4.1128,1
6,0.62,-5,2.8632,21.479,2.3992,3.6115,2.3962,3.8998,1
6,0.64,-5,2.8832,21.479,2.3994,3.849,2.663,4.2098,1
6,0.64,-5,2.8832,21.479,2.3992,3.7052,2.5956,3.9483,1
6,-0.53,5,1.928,21.479,2.3989,3.6889,2.3723,3.9875,1
6,-0.53,5,1.928,21.479,2.3995,3.5906,2.3753,3.8824,1
6,-0.51,5,1.948,21.479,2.3992,3.7592,2.3935,4.0458,1
6,-0.51,5,1.9481,21.479,2.399,3.7,2.404,3.9917,1
6,-0.51,5,1.948,21.479,2.3992,3.5485,2.4026,3.8438,1
6,0.6,-5,2.8432,21.479,2.3993,3.2593,0,0,0
6,0.6,-5,2.8431,21.479,2.3992,3.1981,0,0,0
6,0.62,-5,2.8632,21.479,2.3995,3.4527,2.4084,3.7462,1
6,0.62,-5,2.8632,21.479,2.3994,3.3928,2.4059,3.6866,1
6,0.62,-5,2.8632,21.479,2.3993,3.2238,0,0,0
6,0.66,-5,2.9032,21.479,2.3991,3.4529,2.6492,3.7196,1
6,0.66,-5,2.9032,21.479,2.3993,3.3284,0,0,0
6,0.66,-5,2.9032,21.479,2.3991,3.2222,0,0,0
6,0.52,-4.5,2.774,21.479,2.3994,4.5727,2.3732,4.868,1
6,0.52,-4.5,2.7741,21.479,2.3995,4.3216,2.3593,4.6176,1
6.5,0.79,-10.2,2.9385,21.479,2.3992,8.727,1.8258,8.9911,0
6.5,-0.9275,10.1,1.6252,21.479,2.3992,5.5543,2.3488,5.8329,1
6.5,-0.92,10,1.6327,21.479,2.3991,5.133,2.434,5.4236,1
6.5,-0.905,9.8,1.6435,21.479,2.3993,4.3025,4.1609,4.7816,0
6.5,0.99,-10,3.1385,21.479,2.3992,4.9738,1.6489,4.7938,0
6.5,0.85,-10,2.9985,21.479,2.3991,6.5526,0,0,0
6.5,0.85,-10,2.9984,21.479,2.3994,5.687,0,0,0
6.5,0.85,-10,2.9985,21.479,2.3989,5.2603,0,0,0
6.5,-0.85,10,1.7028,21.479,2.3991,5.0216,0,0,0
6.5,1.15,-10,3.2985,21.479,2.3993,3.2898,2.4197,3.5803,1
6.5,1.17,-10,3.3185,21.479,2.3993,3.2235,2.5477,3.4782,1
6.5,1.19,-10,3.3383,21.479,2.3992,3.3648,3.4907,3.3112,0
6.5,1.19,-10,3.3385,21.479,2.3991,3.3406,3.0911,3.4346,0
6.5,1.19,-10,3.3385,21.479,2.3993,3.2698,3.0774,3.2976,0
6.5,1.21,-10,3.3584,21.479,2.3992,3.2993,4.4286,2.9085,0
6.5,-1.1,10,1.4528,21.479,2.3993,3.4648,0,0,0
6.5,-1.1,10,1.4527,21.479,2.3992,3.3952,1.0873,3.043,0
6.5,-1.08,10,1.4728,21.479,2.3991,3.4089,1.5697,3.4947,0
6.5,-1.08,10,1.4728,21.479,2.3994,3.2251,1.9989,3.4567,1
6.5,-1.04,10,1.5128,21.479,2.3993,3.4672,2.3802,3.748,1
6.5,-1.04,10,1.5127,21.479,2.3997,3.2706,2.4183,3.5631,1
6,0.48,-5,2.7233,21.48,2.3992,6.1254,1.0282,6.2526,0
6,-0.42,5,2.0379,21.48,2.3993,6.1255,2.5416,6.4032,1
6,-0.36,5,2.098,21.48,2.3994,6.1252,4.3162,5.9936,0
6,-0.46,5,1.9979,21.48,2.3991,6.1126,2.2927,6.3967,1
6,0.525,-5,2.7682,21.48,2.3991,6.5751,2.4108,6.862,1
6,0.51,-5,2.7532,21.48,2.3992,6.5934,2.3026,6.8901,1
6,0.555,-5,2.7983,21.48,2.3992,6.6038,2.8186,6.8434,1
6,-0.46,5,1.998,21.48,2.3992,6.6182,1.8605,6.8026,0
6,0.5,-5,2.7432,21.48,2.3989,5.2362,1.0892,5.4428,0
6,0.58,-5,2.8232,21.48,2.3993,5.2643,2.4819,5.552,1
6,0.6,-5,2.8433,21.48,2.3991,5.2646,2.727,5.5092,1
6,0.62,-5,2.8632,21.48,2.3993,5.2724,3.442,5.2363,0
6,0.55,-5,2.7933,21.48,2.3993,5.6976,2.3779,5.9887,1
6,0.59,-5,2.8332,21.48,2.3991,5.6839,3.089,5.8379,0
6,-0.39,5,2.068,21.48,2.3993,5.6978,3.7759,5.7759,0
6,-0.48,5,1.978,21.48,2.3993,5.6947,2.1862,5.9783,1
6,0.52,-5,2.7632,21.48,2.3994,4.8331,1.3123,5.0737,0
6,0.56,-5,2.8032,21.48,2.3992,4.8287,2.2831,5.1038,1
6,0.66,-5,2.9032,21.48,2.3993,4.8113,4.4161,4.5268,0
6,-0.42,5,2.038,21.48,2.3993,4.8357,3.72,4.7595,0
6,0.52,-5,2.7633,21.48,2.3993,4.3628,0.48735,4.5572,0
6,0.56,-5,2.8032,21.48,2.3993,4.3898,2.2372,4.6805,1
6,0.62,-5,2.8632,21.48,2.3993,4.396,2.6297,4.6848,1
6,-0.44,5,2.018,21.48,2.3994,4.3794,3.3807,4.535,0
6,-0.42,5,2.038,21.48,2.3992,4.3707,4.1623,3.9296,0
6,-0.52,5,1.938,21.48,2.3993,4.4076,2.2092,4.705,1
6,0.54,-5,2.7832,21.48,2.3992,3.9789,1.4477,4.2331,0
6,0.56,-5,2.8032,21.48,2.3994,3.9625,1.8076,4.1879,0
6,0.6,-5,2.8433,21.48,2.3992,3.9707,2.3811,4.271,1
6,0.61,-5,2.8533,21.48,2.3992,3.9753,2.4208,4.2697,1
6,0.63,-5,2.8733,21.48,2.3994,3.9838,2.5965,4.2894,1
6,0.65,-5,2.8933,21.48,2.3992,3.9754,3.0296,4.2918,0
6,0.67,-5,2.9132,21.48,2.3993,3.9565,3.4935,3.8621,0
6,-0.46,5,1.998,21.48,2.399,4,2.9543,4.4257,0
6,-0.42,5,2.0379,21.48,2.3992,3.9459,0,0,0
6,-0.51,5,1.948,21.48,2.3992,3.9529,2.386,4.2421,1
6,0.48,-5,2.7233,21.48,2.3993,6.4155,1.571,6.6481,0
6,0.48,-5,2.7232,21.48,2.3997,6.331,1.1958,6.0797,0
6,0.5,-5,2.7432,21.48,2.3995,6.523,2.0643,6.881,1
6,0.5,-5,2.7432,21.48,2.3993,6.4195,2.2264,6.7011,1
6,0.52,-5,2.7633,21.48,2.3993,6.5465,2.3202,6.844,1
6,0.52,-5,2.7632,21.48,2.3993,6.3582,2.3332,6.6379,1
6,0.48,-5,2.7232,21.48,2.3994,6.2593,1.4651,6.5016,0
6,0.48,-5,2.7233,21.48,2.3994,6.1701,1.2545,6.2782,0
6,0.48,-5,2.7232,21.48,2.3994,5.9492,1.4622,5.6419,0
6,0.5,-5,2.7432,21.48,2.3993,6.2219,1.8258,6.4469,0
6,0.5,-5,2.7433,21.48,2.3993,6.1535,1.8511,6.3595,0
6,0.5,-5,2.7433,21.48,2.3991,6.0486,1.8129,6.2621,0
6,0.52,-5,2.7633,21.48,2.3991,6.042,2.2574,6.3293,1
6,-0.46,5,1.998,21.48,2.3991,6.2124,2.1008,6.4616,1
6,-0.46,5,1.998,21.48,2.399,6.1606,2.1993,6.445,1
6,-0.46,5,1.998,21.48,2.3994,6.0891,2.2847,6.3553,1
6,-0.44,5,2.0179,21.48,2.3995,6.2241,2.3888,6.5043,1
6,-0.42,5,2.0379,21.48,2.3989,6.1785,2.4989,6.4797,1
6,-0.42,5,2.038,21.48,2.3991,6.1421,2.4869,6.4605,1
6,-0.42,5,2.038,21.48,2.3995,5.9396,2.7782,6.1641,1
6,0.48,-5,2.7233,21.48,2.3992,5.772,0.6462,5.6828,0
6,0.48,-5,2.7232,21.48,2.3991,5.6953,0.6425,5.3589,0
6,0.48,-5,2.7233,21.48,2.3993,5.6389,0,0,0
6,0.5,-5,2.7432,21.48,2.3992,5.8595,1.8923,6.0959,0
6,0.52,-5,2.7632,21.48,2.399,5.8657,2.0698,6.1269,1
6,0.52,-5,2.7632,21.48,2.3991,5.7229,2.0586,5.9691,1
6,0.54,-5,2.7833,21.48,2.3989,5.7526,2.3981,6.036,1
6,0.54,-5,2.7832,21.48,2.3991,5.6694,2.2828,5.9786,1
6,-0.47,5,1.9879,21.48,2.3994,5.6976,2.2839,5.9794,1
6,-0.43,5,2.0279,21.48,2.3991,5.8668,2.5113,6.1341,1
6,-0.43,5,2.0279,21.48,2.3993,5.7952,2.5474,6.0173,1
6,-0.41,5,2.0479,21.48,2.3992,5.8007,3.1426,6.0037,0
6,-0.41,5,2.048,21.48,2.3996,5.746,3.3407,6.2854,0
6,0.5,-5,2.7432,21.48,2.399,5.3547,0.822,5.7098,0
6,0.52,-5,2.7632,21.48,2.3992,5.4275,1.9632,5.6778,0
6,0.54,-5,2.7833,21.48,2.3992,5.5398,2.3755,5.8312,1
6,0.54,-5,2.7832,21.48,2.3989,5.3466,2.3258,5.6527,1
6,0.54,-5,2.7832,21.48,2.3992,5.2632,2.2689,5.5398,1
6,0.56,-5,2.8032,21.48,2.399,5.4539,2.3398,5.7346,1
6,0.56,-5,2.8033,21.48,2.3992,5.4399,2.4083,5.7198,1
6,0.56,-5,2.8032,21.48,2.3993,5.3284,2.3668,5.609,1
6,-0.47,5,1.9879,21.48,2.3989,5.4394,2.3148,5.675,1
6,-0.47,5,1.988,21.48,2.3994,5.293,2.3865,5.589,1
6,-0.43,5,2.028,21.48,2.3997,5.5219,2.4839,5.8241,1
6,-0.41,5,2.048,21.48,2.3992,5.4691,3.322,5.6443,0
6,-0.41,5,2.048,21.48,2.3995,5.3367,3.4734,5.5155,0
6,0.52,-5,2.7633,21.48,2.3994,5.2005,1.4257,5.6493,0
6,0.52,-5,2.7632,21.48,2.3993,4.8815,1.4333,5.0014,0
6,0.54,-5,2.7832,21.48,2.3987,4.9839,2.0977,5.2661,1
6,0.58,-5,2.8233,21.48,2.3991,5.123,2.4805,5.4092,1
6,0.58,-5,2.8233,21.48,2.3992,4.8978,2.4422,5.1787,1
6,-0.5,5,1.9579,21.48,2.3992,5.0188,2.2665,5.246,1
6,-0.5,5,1.958,21.48,2.399,4.9168,2.3235,5.1437,1
6,-0.48,5,1.978,21.48,2.3993,5.1581,2.3811,5.4386,1
6,-0.48,5,1.978,21.48,2.3991,4.8935,2.3899,5.1776,1
6,-0.46,5,1.9979,21.48,2.399,5.0202,2.4686,5.3077,1
6,-0.44,5,2.018,21.48,2.3988,4.9859,2.6035,5.2526,1
6,-0.44,5,2.018,21.48,2.3991,4.9037,2.7792,5.1688,1
6,0.56,-5,2.8032,21.48,2.3994,4.8261,2.1798,5.0966,1
6,0.56,-5,2.8032,21.48,2.3995,4.6552,2.2397,4.9278,1
6,0.6,-5,2.8433,21.48,2.3994,4.7069,2.4553,4.9781,1
6,-0.52,5,1.938,21.48,2.3993,4.7306,2.2338,4.9613,1
6,-0.52,5,1.938,21.48,2.399,4.6205,2.1897,4.8759,1
6,-0.5,5,1.958,21.48,2.3991,4.8062,2.3549,5.0874,1
6,-0.5,5,1.958,21.48,2.3992,4.7161,2.3688,5.0033,1
6,-0.5,5,1.9579,21.48,2.399,4.6552,2.2997,4.9301,1
6,-0.48,5,1.9779,21.48,2.3995,4.5747,2.4188,4.8657,1
6,-0.46,5,1.998,21.48,2.3993,4.6152,2.5979,4.918,1
6,0.56,-5,2.8033,21.48,2.3992,4.4038,2.2037,4.684,1
6,0.58,-5,2.8232,21.48,2.3994,4.4791,2.3713,4.7895,1
6,0.58,-5,2.8232,21.48,2.3989,4.4116,2.3946,4.709,1
6,0.58,-5,2.8233,21.48,2.3988,4.2043,2.2908,4.4934,1
6,0.6,-5,2.8432,21.48,2.3992,4.4462,2.4642,4.7229,1
6,0.6,-5,2.8432,21.48,2.3991,4.4589,2.453,4.761,1
6,0.62,-5,2.8632,21.48,2.3994,4.5625,2.7134,4.8216,1
6,0.62,-5,2.8632,21.48,2.3995,4.4195,2.5352,4.7037,1
6,0.62,-5,2.8633,21.48,2.399,4.2873,2.5477,4.5643,1
6,-0.55,5,1.9079,21.48,2.3992,4.3322,1.148,4.3071,0
6,-0.53,5,1.928,21.48,2.3994,4.3839,1.969,4.6047,1
6,-0.51,5,1.948,21.48,2.3989,4.2277,2.35,4.5185,1
6,-0.49,5,1.9679,21.48,2.3991,4.4609,2.3958,4.7538,1
6,-0.49,5,1.9679,21.48,2.3991,4.3098,2.3966,4.6075,1
6,0.58,-5,2.8233,21.48,2.3995,4.1129,2.2849,4.4001,1
6,0.58,-5,2.8233,21.48,2.3995,3.985,2.2227,4.314,1
6,0.6,-5,2.8432,21.48,2.3991,4.0978,2.409,4.3954,1
6,0.62,-5,2.8633,21.48,2.3995,4.1691,2.5176,4.4275,1
6,0.62,-5,2.8633,21.48,2.399,3.9724,2.4494,4.2565,1
6,-0.56,5,1.898,21.48,2.3993,4.0715,1.5619,4.1561,0
6,-0.54,5,1.9179,21.48,2.3995,4.1539,1.6235,4.2826,0
6,-0.54,5,1.9179,21.48,2.3991,3.9475,2.2291,4.1239,1
6,-0.52,5,1.9379,21.48,2.3991,4.0427,2.3715,4.3318,1
6,-0.5,5,1.958,21.48,2.3994,4.1378,2.393,4.4334,1
6,-0.5,5,1.958,21.48,2.3996,4.061,2.3942,4.3624,1
6,0.58,-5,2.8232,21.48,2.3995,3.8459,2.2596,4.1391,1
6,0.58,-5,2.8232,21.48,2.3993,3.5673,2.3037,3.8168,1
6,0.6,-5,2.8432,21.48,2.3991,3.7352,2.38,4.0407,1
6,0.62,-5,2.8632,21.48,2.3994,3.7622,2.4397,4.0454,1
6,0.62,-5,2.8632,21.48,2.3994,3.6226,2.4151,3.9079,1
6,0.64,-5,2.8832,21.48,2.3992,3.6339,2.4787,3.9139,1
6,0.64,-5,2.8833,21.48,2.3992,3.5582,2.5642,3.9601,1
6,-0.57,5,1.888,21.48,2.3991,3.8478,1.5219,3.9706,0
6,-0.57,5,1.888,21.48,2.3993,3.7605,1.4533,3.754,0
6,-0.57,5,1.888,21.48,2.3991,3.581,0,0,0
6,-0.57,5,1.8879,21.48,2.3991,3.5023,0,0,0
6,-0.55,5,1.9079,21.48,2.3991,3.7809,2.1171,4.0263,1
6,-0.55,5,1.9079,21.48,2.399,3.7262,2.1049,3.9367,1
6,-0.55,5,1.908,21.48,2.399,3.6536,2.1766,3.8102,1
6,-0.55,5,1.908,21.48,2.3991,3.5509,2.2046,3.7475,1
6,-0.53,5,1.9279,21.48,2.3993,3.7787,2.3397,4.0872,1
6,-0.53,5,1.928,21.48,2.3993,3.6687,2.3284,3.9571,1
6,-0.51,5,1.9479,21.48,2.3996,3.6549,2.4029,3.949,1
6,0.6,-5,2.8432,21.48,2.3993,3.4586,2.3685,3.7521,1
6,0.6,-5,2.8432,21.48,2.3992,3.3466,0,0,0
6,0.62,-5,2.8633,21.48,2.3992,3.3554,2.4028,3.6369,1
6,0.64,-5,2.8832,21.48,2.3992,3.491,2.528,3.7742,1
6,0.64,-5,2.8832,21.48,2.3992,3.313,0,0,0
6.5,0.79,-10.2,2.9385,21.48,2.399,9.3811,1.4553,9.4594,0
6.5,0.79,-10.2,2.9385,21.48,2.3993,8.9199,2.2322,9.2302,1
6.5,-0.9125,9.9,1.638,21.48,2.3994,4.6392,3.266,4.9137,0
6.5,-0.85,10,1.7026,21.48,2.3992,6.3751,2.547,6.7607,1
6.5,-0.85,10,1.7027,21.48,2.3993,5.9198,2.8924,6.1859,0
6.5,-0.85,10,1.7027,21.48,2.3996,5.525,3.9824,6.8776,0
6.5,1.15,-10,3.2986,21.48,2.3989,3.3965,2.4467,3.7004,1
6.5,1.15,-10,3.2985,21.48,2.3991,3.3364,2.4372,3.6116,1
6.5,1.15,-10,3.2985,21.48,2.3991,3.1867,2.4349,3.4681,1
6.5,1.17,-10,3.3185,21.48,2.3991,3.3559,2.6813,3.605,1
6.5,1.21,-10,3.3586,21.48,2.399,3.5473,0,0,0
6.5,1.21,-10,3.3586,21.48,2.3991,3.2424,3.5657,3.2405,0
6.5,-1.08,10,1.4727,21.48,2.3989,3.3023,1.7982,3.4717,0
6.5,-1.06,10,1.4926,21.48,2.3993,3.4062,2.2985,3.6868,1
6.5,-1.04,10,1.5126,21.48,2.3999,3.3753,2.3838,3.6669,1
6.5,-1.04,10,1.5127,21.48,2.3997,3.2581,2.386,3.5802,1
6,0.48,-5,2.7233,21.481,2.3993,6.0317,1.0205,5.694,0
6,0.5,-5,2.7433,21.481,2.3996,5.9663,1.8294,6.2832,0
6,0.52,-5,2.7633,21.481,2.3991,5.8988,2.2933,6.1915,1
6,-0.4,5,2.0579,21.481,2.3992,5.9927,3.0825,6.2114,0
6,-0.43,5,2.0279,21.481,2.3992,5.5689,2.7933,5.7887,1
6,0.52,-5,2.7633,21.481,2.3991,5.494,1.9343,5.6835,0
6,0.52,-5,2.7633,21.481,2.3995,5.263,1.7943,5.4727,0
6,0.54,-5,2.7833,21.481,2.3993,5.4689,2.119,5.7178,1
6,-0.41,5,2.0479,21.481,2.3992,5.2376,3.2928,5.3988,0
6,-0.46,5,1.9979,21.481,2.3991,4.9012,2.4523,5.1852,1
6,0.54,-5,2.7833,21.481,2.3996,4.7108,1.6058,5.0851,0
6,0.54,-5,2.7833,21.481,2.3993,4.5804,1.5231,4.7476,0
6,0.58,-5,2.8233,21.481,2.3994,4.7922,2.4091,5.0911,1
6,-0.52,5,1.9379,21.481,2.3995,4.5937,2.0128,4.926,0
6,-0.46,5,1.9979,21.481,2.3994,4.7935,2.4088,5.1221,1
6,0.56,-5,2.8033,21.481,2.3992,4.1833,1.9244,4.463,0
6,-0.53,5,1.9279,21.481,2.3993,4.4631,1.5876,4.5328,0
6,-0.53,5,1.9279,21.481,2.3992,4.2176,2.1936,4.4976,1
6,-0.51,5,1.9479,21.481,2.3992,4.4059,2.2398,4.6758,1
6,0.6,-5,2.8433,21.481,2.3991,4.097,2.4078,4.3983,1
6,-0.5,5,1.9579,21.481,2.3992,3.9742,2.4363,4.2685,1
6,0.64,-5,2.8833,21.481,2.3995,3.2287,0,0,0
6.5,0.9975,-10.1,3.1462,21.481,2.3992,5.3348,1.8059,5.5425,0
6.5,0.85,-10,2.9987,21.481,2.3991,6.1052,0,0,0
6.5,1.19,-10,3.3387,21.481,2.399,3.4659,3.9145,3.3189,0
6.5,-1.08,10,1.4725,21.481,2.399,3.4393,1.6134,3.5503,0
6,0.54,-5,2.7834,21.482,2.3996,5.2098,2.2545,5.5006,1
6,-0.53,5,1.9278,21.482,2.3992,4.3678,1.7277,4.5246,0
6,0.7,-6,2.9215,21.482,2.3995,4.0532,2.3173,4.3242,1
6,0.7,-6,2.9215,21.482,2.399,5.4096,3.0285,5.5699,0
6,0.7,-6,2.9216,21.483,2.3994,4.8143,2.4499,5.1043,1
6,0.7,-6,2.9215,21.483,2.3994,4.3493,2.3216,4.6229,1
6,0.7,-6,2.9216,21.483,2.3992,5.0883,2.5238,5.3737,1
6,0.7,-6,2.9217,21.484,2.3993,6.1496,3.7189,6.1846,0
4.8,0.75,-6.4,2.9353,21.485,2.3991,6.1787,0,0,0
6,0.7,-6,2.9217,21.485,2.3991,4.5037,2.4283,4.8017,1
6,0.7,-6,2.9217,21.485,2.3991,5.7851,3.2043,5.9111,0
4.7,1.32,-9.4,3.4208,21.487,2.3996,4.2147,0,0,0
4.7,1.42,-9.4,3.5208,21.487,2.3993,3.2022,0,0,0
4.8,1.23,-10,3.3191,21.487,2.3994,6.2702,0,0,0
4.8,1.23,-10,3.3191,21.487,2.3994,6.1347,0,0,0
4.8,1.23,-10,3.3192,21.487,2.3991,5.9226,0,0,0
4.8,1.32,-10,3.4091,21.487,2.3991,5.2559,0,0,0
4.7,1.32,-9.4,3.421,21.488,2.3991,4.0738,0,0,0
4.8,1.23,-10,3.3192,21.488,2.3993,5.8188,0,0,0
4.8,1.32,-10,3.4092,21.488,2.3996,5.4534,0,0,0
4.8,1.32,-10,3.4092,21.488,2.3992,5.1264,0,0,0
4.8,1.32,-10,3.4093,21.488,2.3994,4.8987,0,0,0
5.6,1.22,-10,3.3404,21.488,2.3991,5.0589,0,0,0
6,1.02,-10,3.154,21.488,2.3993,6.1559,2.33,6.4468,1
6,-0.88,10,1.6872,21.488,2.399,6.1111,3.7161,6.2576,0
6,-1,10,1.5673,21.488,2.3993,6.1542,1.0042,6.1245,0
6,0.995,-10,3.129,21.488,2.399,6.583,2.3698,6.8701,1
6,1.08,-10,3.214,21.488,2.3991,6.5694,3.8822,6.0628,0
6,1.1,-10,3.234,21.488,2.399,5.2502,2.4327,5.5498,1
6,1.12,-10,3.254,21.488,2.3992,5.2754,2.6304,5.5364,1
6,1.14,-10,3.274,21.488,2.3993,5.2508,3.0631,5.3428,0
6,-0.96,10,1.6072,21.488,2.3992,5.2446,2.5827,5.5387,1
6,-0.94,10,1.6273,21.488,2.3994,5.2895,3.2125,5.6118,0
6,-0.92,10,1.6472,21.488,2.3993,5.2636,4.1654,5.3197,0
6,-1.06,10,1.5072,21.488,2.3991,5.2508,1.2845,5.2324,0
6,1.14,-10,3.2739,21.488,2.3991,5.684,4.3474,5.3079,0
6,1,-10,3.134,21.488,2.3992,5.7016,0.97775,6.4375,0
6,-0.92,10,1.6473,21.488,2.3992,5.6951,3.0414,5.9729,0
6,-1.05,10,1.5173,21.488,2.399,5.7008,0.69675,4.7321,0
6,1.11,-10,3.244,21.488,2.3993,4.8292,2.3712,5.1229,1
6,1.12,-10,3.2539,21.488,2.3992,4.8145,2.4191,5.1111,1
6,-0.99,10,1.5772,21.488,2.3991,4.8161,2.6368,5.1691,1
6,-0.97,10,1.5973,21.488,2.3991,4.8202,3.1251,5.1145,0
6,-1.09,10,1.4772,21.488,2.3991,4.8283,0.55363,4.7281,0
6,-1.07,10,1.4972,21.488,2.3992,4.8296,1.5548,4.9266,0
6,-1.05,10,1.5173,21.488,2.3992,4.801,2.103,5.052,1
6,1.12,-10,3.254,21.488,2.3991,4.3751,2.268,4.7098,1
6,1.16,-10,3.294,21.488,2.3991,4.4112,2.4842,4.6864,1
6,1.18,-10,3.314,21.488,2.3992,4.3888,2.7416,4.5646,1
6,-1,10,1.5673,21.488,2.3992,4.3878,3.2154,4.5263,0
6,-0.98,10,1.5872,21.488,2.399,4.4046,3.7362,4.7319,0
6,-1.1,10,1.4673,21.488,2.3992,4.3746,1.7344,4.5336,0
6,-1.06,10,1.5072,21.488,2.3992,4.3841,2.342,4.6767,1
6,1.11,-10,3.244,21.488,2.3991,3.9738,1.3996,4.2297,0
6,1.15,-10,3.284,21.488,2.3994,3.9676,2.3146,4.2723,1
6,1.17,-10,3.304,21.488,2.3993,3.9628,2.4041,4.2469,1
6,1.18,-10,3.314,21.488,2.3992,3.966,2.4461,4.257,1
6,1.24,-10,3.374,21.488,2.3991,3.9596,0,0,0
6,-1.01,10,1.5572,21.488,2.3991,3.9672,3.4735,4.0242,0
4.7,1.32,-9.4,3.4212,21.489,2.3993,4.5347,0,0,0
4.7,1.42,-9.4,3.5211,21.489,2.3989,3.7359,0,0,0
4.7,1.42,-9.4,3.5212,21.489,2.3995,3.55,0,0,0
5.6,1.24,-10,3.3606,21.489,2.3992,5.2765,0,0,0
5.6,1.04,-10,3.1606,21.489,2.3989,5.7557,0,0,0
5.6,1.16,-10,3.2805,21.489,2.3991,5.7859,2.8909,5.9845,0
5.6,1.1,-10,3.2206,21.489,2.3988,5.4562,0,0,0
5.6,1.28,-10,3.4006,21.489,2.3993,5.1218,0,0,0
5.6,1.26,-10,3.3806,21.489,2.3993,4.2429,0,0,0
5.6,1.32,-10,3.4406,21.489,2.3991,3.9536,0,0,0
5.6,1.26,-10,3.3805,21.489,2.3992,3.478,0,0,0
5.6,-1.07,10,1.5106,21.489,2.3991,5.508,0,0,0
5.6,-1.02,10,1.5606,21.489,2.3989,4.7264,0,0,0
5.6,-1.08,10,1.5006,21.489,2.3996,4.5559,0,0,0
6,1.04,-10,3.1741,21.489,2.3993,6.1464,2.4268,6.4422,1
6,1.06,-10,3.194,21.489,2.3993,6.1328,2.588,6.4044,1
6,0.965,-10,3.0991,21.489,2.3992,6.5899,1.6288,6.826,0
6,0.98,-10,3.114,21.489,2.3991,6.5663,2.1692,6.8733,1
6,-0.88,10,1.6871,21.489,2.3992,6.5949,2.7433,6.9833,0
6,-1.01,10,1.5572,21.489,2.3993,4.8192,2.391,5.1098,1
6,1.14,-10,3.274,21.489,2.3992,4.3955,2.411,4.6886,1
6,-1.02,10,1.5472,21.489,2.3992,4.3436,2.5824,4.6525,1
6,1.22,-10,3.3541,21.489,2.3992,3.9806,2.951,4.1298,0
6,-1.11,10,1.4571,21.489,2.3993,3.973,2.0825,4.2143,1
6,0.7,-7.5,2.8888,21.489,2.3988,6.3927,0.1937,6.1712,0
6,-0.76,7.5,1.7523,21.489,2.3992,4.2344,2.5296,4.5466,1
6.5,0.14,-1.2,2.4666,21.489,2.3989,5.9414,2.3068,6.2176,1
6.5,0.08,-0.4,2.4226,21.489,2.3993,5.9245,2.3941,6.2172,1
6.5,0.02,0.4,2.3786,21.489,2.3992,5.4873,2.4528,5.773,1
4.6,-1.02,7.8,1.5397,21.49,2.3992,4.9222,0,0,0
4.7,1.42,-9.4,3.5214,21.49,2.3993,3.4246,0,0,0
5.6,1.08,-10,3.2006,21.49,2.3996,6.3738,2.4001,6.6687,1
5.6,1.16,-10,3.2808,21.49,2.3994,6.3748,0,0,0
5.6,1.24,-10,3.3607,21.49,2.3988,6.3094,0,0,0
5.6,1.08,-10,3.2007,21.49,2.399,5.9402,2.272,6.2266,1
5.6,1.24,-10,3.3607,21.49,2.3991,5.9583,0,0,0
5.6,1,-10,3.1206,21.49,2.3991,5.5959,0,0,0
5.6,1.08,-10,3.2008,21.49,2.3991,5.5615,0,0,0
5.6,1.16,-10,3.2807,21.49,2.3991,5.5835,2.7022,5.8172,1
5.6,1,-10,3.1207,21.49,2.399,5.2443,0,0,0
5.6,1.08,-10,3.2007,21.49,2.3991,5.2726,0,0,0
5.6,0.98,-10,3.1008,21.49,2.3997,5.9778,0,0,0
5.6,1.04,-10,3.1606,21.49,2.3992,5.959,0,0,0
5.6,1.1,-10,3.2207,21.49,2.3993,5.7971,2.4067,6.0923,1
5.6,0.98,-10,3.1006,21.49,2.3991,5.6185,0,0,0
5.6,1.16,-10,3.2806,21.49,2.3995,5.5781,0,0,0
5.6,0.98,-10,3.1007,21.49,2.3991,5.424,0,0,0
5.6,1.16,-10,3.2808,21.49,2.3993,5.4729,0,0,0
5.6,1.1,-10,3.2208,21.49,2.3996,4.8149,0,0,0
5.6,1.22,-10,3.3407,21.49,2.3991,4.8678,0,0,0
5.6,1.16,-10,3.2808,21.49,2.3987,4.5218,0,0,0
5.6,1.22,-10,3.3408,21.49,2.3986,4.3177,0,0,0
5.6,1.2,-10,3.3208,21.49,2.3992,4.2194,0,0,0
5.6,1.38,-10,3.5007,21.49,2.3991,4.191,0,0,0
5.6,1.26,-10,3.3808,21.49,2.3994,4.0029,0,0,0
5.6,1.26,-10,3.3808,21.49,2.3993,3.725,0,0,0
5.6,-1.07,10,1.5104,21.49,2.3993,6.3343,0,0,0
5.6,-0.89,10,1.6906,21.49,2.3994,6.2926,0,0,0
5.6,-0.89,10,1.6905,21.49,2.3991,6.0538,0,0,0
5.6,-1.01,10,1.5705,21.49,2.3991,5.7922,2.3847,6.0795,1
5.6,-1.14,10,1.4405,21.49,2.3993,4.8203,0,0,0
5.6,-1.08,10,1.5005,21.49,2.3995,4.7716,0,0,0
5.6,-1.02,10,1.5605,21.49,2.3997,4.5689,0,0,0
5.6,-1.08,10,1.5006,21.49,2.3993,4.333,0,0,0
5.6,-1.02,10,1.5605,21.49,2.3992,4.3679,0,0,0
5.6,-1.08,10,1.5005,21.49,2.3996,4.0457,0,0,0
5.6,-1.02,10,1.5604,21.49,2.3994,4.0825,0,0,0
6,0.72,-7.5,2.9091,21.49,2.3994,6.4514,1.2484,7.1715,0
6,0.76,-7.5,2.9489,21.49,2.3991,6.497,2.3722,6.7776,1
6,0.75,-7.5,2.939,21.49,2.3994,6.1503,1.8264,6.4912,0
6,0.75,-7.5,2.939,21.49,2.3995,6.0161,1.3791,6.1489,0
6,0.77,-7.5,2.959,21.49,2.3989,6.2443,2.3755,6.5318,1
6,0.77,-7.5,2.9589,21.49,2.3991,5.96,2.3023,6.2584,1
6,-0.67,7.5,1.8422,21.49,2.3991,6.1641,2.4434,6.4417,1
6,0.78,-7.5,2.969,21.49,2.399,5.6952,2.3185,5.9944,1
6,-0.69,7.5,1.8222,21.49,2.3992,5.6204,2.6133,5.8967,1
6,0.8,-7.5,2.989,21.49,2.3992,4.8691,1.4802,5.0218,0
6,0.8,-7.5,2.989,21.49,2.3992,4.6871,1.3362,4.8165,0
6,0.8,-7.5,2.989,21.49,2.3989,4.5963,1.6573,4.7155,0
6,-0.78,7.5,1.7322,21.49,2.399,4.8182,2.2283,5.1021,1
6,-0.72,7.5,1.7922,21.49,2.3992,4.5842,2.7126,4.8531,1
6,0.87,-7.5,3.059,21.49,2.3992,4.366,2.4167,4.6654,1
6,-0.8,7.5,1.7122,21.49,2.3993,4.2745,2.1923,4.5528,1
6,-0.76,7.5,1.7522,21.49,2.3992,4.253,2.4455,4.5349,1
6,0.83,-7.5,3.0189,21.49,2.3989,4.0597,1.8,4.8227,0
6,0.87,-7.5,3.059,21.49,2.3992,3.9205,2.2388,4.2175,1
6,0.89,-7.5,3.079,21.49,2.3991,3.9536,2.4494,4.2439,1
6,-0.78,7.5,1.7322,21.49,2.3994,4.0535,2.4365,4.3205,1
6,-0.78,7.5,1.7322,21.49,2.3989,3.9969,2.3957,4.2801,1
6,0.89,-7.5,3.0789,21.49,2.399,3.6987,2.394,3.9861,1
6,0.91,-7.5,3.099,21.49,2.3994,3.7944,2.5016,4.0997,1
6,0.91,-7.5,3.0989,21.49,2.3991,3.7017,2.4261,3.9901,1
6,0.93,-7.5,3.119,21.49,2.399,3.7881,2.6909,4.0457,1
6,-0.84,7.5,1.6723,21.49,2.3994,3.8019,1.967,4.0133,1
6.5,0.22,-1.6,2.5386,21.49,2.3991,5.9032,2.5797,6.1929,1
6.5,0.22,-1.6,2.5386,21.49,2.3991,5.0828,2.5231,5.3574,1
6.5,0.2,-2,2.5107,21.49,2.3992,6.3415,1.4275,6.4913,0
6.5,0.02,0.4,2.3786,21.49,2.3989,6.3316,2.4006,6.6059,1
6.5,0.02,0.4,2.3786,21.49,2.3989,5.817,2.405,6.0974,1
6.5,0.2,-2,2.5107,21.49,2.3989,5.4904,1.7013,5.5771,0
6.5,0.14,-1.2,2.4666,21.49,2.3988,5.4863,2.0164,5.7336,1
6.5,0.14,-1.2,2.4666,21.49,2.3996,5.0968,1.9502,5.3362,0
6.5,-0.1125,1.5,2.2681,21.49,2.3991,5.4248,2.2415,5.717,1
4.5,-1.3,8.4,1.2803,21.491,2.3991,3.6378,0,0,0
4.6,-1.02,7.8,1.5395,21.491,2.3993,5.4655,0,0,0
4.6,-1.02,7.8,1.5394,21.491,2.3985,5.155,0,0,0
4.7,1.32,-9.4,3.4215,21.491,2.3989,4.3529,0,0,0
5.6,1,-10,3.1209,21.491,2.399,6.3175,0.5331,6.011,0
5.6,1.16,-10,3.2809,21.491,2.3993,5.9218,3.4103,5.9374,0
5.6,1.24,-10,3.3609,21.491,2.3992,5.6163,0,0,0
5.6,1.1,-10,3.2208,21.491,2.3994,5.964,2.4176,6.2611,1
5.6,1.16,-10,3.2809,21.491,2.3989,5.9863,3.5494,5.9581,0
5.6,0.98,-10,3.1008,21.491,2.3991,5.7974,0,0,0
5.6,1.04,-10,3.161,21.491,2.3991,5.5448,0,0,0
5.6,1.04,-10,3.1609,21.491,2.3993,5.4249,0,0,0
5.6,1.1,-10,3.2209,21.491,2.3992,5.0807,0,0,0
5.6,1.16,-10,3.281,21.491,2.3991,4.8174,0,0,0
5.6,1.1,-10,3.2209,21.491,2.3992,4.6518,0,0,0
5.6,1.22,-10,3.3409,21.491,2.3995,4.6146,0,0,0
5.6,1.28,-10,3.4008,21.491,2.3992,4.5317,0,0,0
5.6,1.1,-10,3.2209,21.491,2.3993,4.2752,0,0,0
5.6,1.16,-10,3.281,21.491,2.3994,4.3161,0,0,0
5.6,1.28,-10,3.4008,21.491,2.3988,4.2942,0,0,0
5.6,1.32,-10,3.441,21.491,2.399,4.2239,0,0,0
5.6,1.2,-10,3.3209,21.491,2.3991,3.9611,0,0,0
5.6,1.38,-10,3.5009,21.491,2.399,3.9539,0,0,0
5.6,1.2,-10,3.3208,21.491,2.3989,3.7219,0,0,0
5.6,1.32,-10,3.4408,21.491,2.3993,3.7532,0,0,0
5.6,1.38,-10,3.5008,21.491,2.399,3.7224,0,0,0
5.6,1.2,-10,3.3209,21.491,2.3992,3.4752,0,0,0
5.6,1.32,-10,3.4408,21.491,2.3996,3.4526,0,0,0
5.6,1.38,-10,3.5009,21.491,2.3991,3.4417,0,0,0
5.6,-1.01,10,1.5703,21.491,2.3991,6.3145,2.0555,6.567,1
5.6,-1.07,10,1.5104,21.491,2.3993,6.0615,0,0,0
5.6,-0.95,10,1.6303,21.491,2.399,6.0333,3.2286,6.2279,0
5.6,-1.07,10,1.5103,21.491,2.3991,5.7747,0,0,0
5.6,-0.89,10,1.6903,21.491,2.3989,5.7579,0,0,0
5.6,-0.95,10,1.6304,21.491,2.3987,5.5076,0,0,0
5.6,-1.2,10,1.3803,21.491,2.3995,4.6191,0,0,0
5.6,-1.14,10,1.4402,21.491,2.399,4.5732,0,0,0
5.6,-1.14,10,1.4404,21.491,2.3994,4.3337,0,0,0
5.6,-1.14,10,1.4403,21.491,2.3993,4.1099,0,0,0
6,0.7,-7.5,2.8891,21.491,2.3989,6.5568,0.4406,6.1746,0
6,0.72,-7.5,2.9092,21.491,2.399,6.3356,1.263,6.9219,0
6,0.74,-7.5,2.9291,21.491,2.3994,6.5092,2.1915,6.7822,1
6,0.74,-7.5,2.9292,21.491,2.3992,6.3156,2.2259,6.58,1
6,-0.66,7.5,1.852,21.491,2.3991,6.2723,2.4197,6.5526,1
6,-0.64,7.5,1.8721,21.491,2.3992,6.5279,2.6308,6.8075,1
6,0.73,-7.5,2.9192,21.491,2.3991,6.2162,1.525,6.4846,0
6,0.73,-7.5,2.9191,21.491,2.3992,6.122,1.6234,6.1322,0
6,0.75,-7.5,2.9391,21.491,2.399,5.925,1.8052,6.1927,0
6,0.79,-7.5,2.9791,21.491,2.3989,6.1376,2.4153,6.4236,1
6,-0.71,7.5,1.8021,21.491,2.3989,5.995,2.3079,6.2492,1
6,-0.69,7.5,1.8221,21.491,2.3995,5.946,2.4403,6.2485,1
6,-0.67,7.5,1.8421,21.491,2.3991,6.2051,2.4672,6.5271,1
6,-0.67,7.5,1.8421,21.491,2.3995,6.0403,2.7735,6.5635,0
6,-0.67,7.5,1.842,21.491,2.3993,5.9519,2.9691,6.1177,0
6,-0.65,7.5,1.8622,21.491,2.3988,6.1626,3.2807,6.2992,0
6,-0.65,7.5,1.8621,21.491,2.3998,5.9807,3.2866,6.149,0
6,0.74,-7.5,2.9292,21.491,2.399,5.744,1.1138,5.8446,0
6,0.74,-7.5,2.9291,21.491,2.3989,5.5374,0.3997,5.0701,0
6,0.76,-7.5,2.949,21.491,2.399,5.7898,1.7614,6.1015,0
6,0.76,-7.5,2.9491,21.491,2.3994,5.7235,1.5937,5.874,0
6,0.76,-7.5,2.9491,21.491,2.3992,5.6043,1.2352,5.9574,0
6,0.78,-7.5,2.969,21.491,2.3991,5.8611,2.3599,6.1528,1
6,0.78,-7.5,2.9691,21.491,2.3992,5.5906,2.0439,5.8736,1
6,0.8,-7.5,2.989,21.491,2.3994,5.8977,2.4944,6.1891,1
6,0.8,-7.5,2.9892,21.491,2.3991,5.6599,2.337,5.9518,1
6,0.8,-7.5,2.9892,21.491,2.3996,5.5817,2.4008,5.8673,1
6,-0.73,7.5,1.7821,21.491,2.3995,5.6848,2.1092,5.9293,1
6,-0.73,7.5,1.782,21.491,2.3992,5.5997,2.317,5.8529,1
6,-0.71,7.5,1.8021,21.491,2.3993,5.6882,2.3828,5.9771,1
6,-0.69,7.5,1.8221,21.491,2.3991,5.7519,2.5167,6.0433,1
6,-0.69,7.5,1.8221,21.491,2.3994,5.7043,2.4814,6.0103,1
6,-0.67,7.5,1.8421,21.491,2.3994,5.8524,2.6042,6.1463,1
6,0.78,-7.5,2.9691,21.491,2.399,5.3273,2.0896,5.6059,1
6,0.8,-7.5,2.989,21.491,2.3993,5.5159,2.1742,5.7947,1
6,0.8,-7.5,2.989,21.491,2.3991,5.4174,2.2188,5.7203,1
6,0.8,-7.5,2.9891,21.491,2.3993,5.3257,2.3327,5.6337,1
6,-0.75,7.5,1.7621,21.491,2.399,5.5471,1.5976,5.6606,0
6,-0.73,7.5,1.7821,21.491,2.3989,5.5006,2.1725,5.7926,1
6,-0.73,7.5,1.7821,21.491,2.399,5.3872,2.3674,5.6757,1
6,-0.71,7.5,1.8021,21.491,2.3989,5.5464,2.4003,5.8456,1
6,-0.71,7.5,1.8021,21.491,2.3993,5.249,2.5302,5.5353,1
6,-0.69,7.5,1.8221,21.491,2.3993,5.5472,2.5534,5.8429,1
6,0.78,-7.5,2.9691,21.491,2.3992,4.9716,1.2239,5.6791,0
6,0.8,-7.5,2.9892,21.491,2.3994,5.1067,1.9742,5.4912,0
6,0.82,-7.5,3.0092,21.491,2.3992,5.0527,2.3947,5.3457,1
6,0.84,-7.5,3.0292,21.491,2.3991,5.2058,2.4735,5.4941,1
6,0.84,-7.5,3.0291,21.491,2.3996,5.1228,2.3862,5.4033,1
6,0.84,-7.5,3.0291,21.491,2.3992,5.0279,2.4178,5.3208,1
6,0.84,-7.5,3.0291,21.491,2.3994,4.9365,2.3754,5.2475,1
6,-0.76,7.5,1.7522,21.491,2.3996,5.1018,2.1241,5.3331,1
6,-0.7,7.5,1.8121,21.491,2.3991,5.184,2.6381,5.5149,1
6,-0.7,7.5,1.8121,21.491,2.3989,4.9139,2.9222,5.1997,0
6,0.8,-7.5,2.9891,21.491,2.3993,4.8047,1.4229,5.0536,0
6,0.82,-7.5,3.0091,21.491,2.3997,4.6906,2.1806,4.9784,1
6,0.82,-7.5,3.0091,21.491,2.3994,4.6626,2.0262,4.9532,1
6,0.84,-7.5,3.0291,21.491,2.3994,4.669,2.3985,4.9678,1
6,0.84,-7.5,3.0291,21.491,2.3992,4.5979,2.2595,4.9668,1
6,-0.78,7.5,1.7321,21.491,2.399,4.7177,2.2392,4.9902,1
6,-0.76,7.5,1.7522,21.491,2.3992,4.6914,2.3714,4.9803,1
6,-0.74,7.5,1.772,21.491,2.3994,4.8546,2.3994,5.148,1
6,0.81,-7.5,2.9991,21.491,2.3994,4.4339,1.1602,4.9991,0
6,0.81,-7.5,2.9992,21.491,2.399,4.222,1.1723,4.3039,0
6,0.83,-7.5,3.0191,21.491,2.3994,4.4142,1.778,4.6363,0
6,0.83,-7.5,3.0192,21.491,2.3993,4.2276,1.8628,4.5245,0
6,0.85,-7.5,3.0391,21.491,2.3992,4.4224,2.3557,4.7051,1
6,0.85,-7.5,3.039,21.491,2.3991,4.2383,2.3228,4.5408,1
6,0.87,-7.5,3.0591,21.491,2.3992,4.4697,2.5031,4.7796,1
6,-0.8,7.5,1.7121,21.491,2.3992,4.4606,2.0823,4.7391,1
6,-0.8,7.5,1.7121,21.491,2.3992,4.4297,2.131,4.6933,1
6,-0.78,7.5,1.7321,21.491,2.3989,4.4795,2.311,4.7646,1
6,-0.78,7.5,1.7321,21.491,2.399,4.3107,2.2959,4.5896,1
6,-0.74,7.5,1.772,21.491,2.3992,4.4809,2.5866,4.7977,1
6,-0.74,7.5,1.7721,21.491,2.3994,4.3945,2.6473,4.6311,1
6,-0.74,7.5,1.772,21.491,2.3992,4.2461,2.6426,4.5015,1
6,0.83,-7.5,3.0192,21.491,2.3991,4.1402,1.58,4.3283,0
6,0.83,-7.5,3.019,21.491,2.399,3.9894,1.6042,4.1762,0
6,0.85,-7.5,3.0391,21.491,2.3992,4.0228,2.1086,4.3287,1
6,0.85,-7.5,3.0391,21.491,2.3992,3.8686,2.0053,4.1216,1
6,0.87,-7.5,3.0591,21.491,2.3995,4.111,2.4006,4.396,1
6,0.87,-7.5,3.0591,21.491,2.3989,4.0385,2.3962,4.3297,1
6,0.87,-7.5,3.0591,21.491,2.3995,3.9522,2.2634,4.2611,1
6,0.89,-7.5,3.079,21.491,2.3996,4.1463,2.4371,4.4331,1
6,0.89,-7.5,3.0791,21.491,2.3991,3.9221,2.4154,4.2163,1
6,-0.82,7.5,1.692,21.491,2.3991,4.0385,1.8824,4.2298,0
6,-0.82,7.5,1.692,21.491,2.3995,3.9418,1.6392,4.019,0
6,-0.8,7.5,1.7121,21.491,2.3992,4.125,2.2656,4.4131,1
6,-0.8,7.5,1.7121,21.491,2.3993,3.9864,2.2933,4.273,1
6,-0.8,7.5,1.712,21.491,2.3991,3.8502,2.3752,4.0776,1
6,-0.78,7.5,1.7321,21.491,2.3987,4.1061,2.497,4.4161,1
6,-0.78,7.5,1.7321,21.491,2.3993,3.885,2.4008,4.1682,1
6,-0.76,7.5,1.7521,21.491,2.3991,4.0017,2.7531,4.1324,1
6,0.87,-7.5,3.0591,21.491,2.3994,3.7256,2.2457,4.0408,1
6,0.87,-7.5,3.0591,21.491,2.3992,3.6664,2.097,3.9057,1
6,0.87,-7.5,3.0591,21.491,2.3992,3.5506,2.2159,3.8153,1
6,0.89,-7.5,3.0791,21.491,2.3993,3.5632,2.3296,3.8692,1
6,0.91,-7.5,3.0991,21.491,2.3993,3.7182,2.4523,3.9982,1
6,0.93,-7.5,3.1191,21.491,2.3992,3.605,2.7034,3.8433,1
6,-0.84,7.5,1.6721,21.491,2.3994,3.713,1.7611,3.8807,0
6,-0.84,7.5,1.6721,21.491,2.3994,3.4859,2.1875,3.7771,1
6,-0.82,7.5,1.6921,21.491,2.3994,3.7327,2.3172,3.9729,1
6,-0.82,7.5,1.692,21.491,2.3993,3.6486,2.3114,3.9225,1
6,-0.8,7.5,1.712,21.491,2.399,3.6743,2.3883,3.9719,1
6,-0.8,7.5,1.7121,21.491,2.3992,3.6456,2.4007,3.9372,1
6,-0.8,7.5,1.7121,21.491,2.3994,3.5866,2.4107,3.8821,1
6,-0.78,7.5,1.7321,21.491,2.3996,3.8752,2.4067,4.1728,1
6,-0.78,7.5,1.732,21.491,2.3989,3.7345,2.4656,4.0414,1
6,-0.78,7.5,1.732,21.491,2.3994,3.5079,2.4837,3.8088,1
6.5,-0.23,2.5,2.1705,21.491,2.3991,5.0982,2.0087,5.4227,0
6.5,0.2875,-2.4,2.5902,21.491,2.3992,5.3711,2.4134,5.6617,1
6.5,0.28,-2.3,2.5847,21.491,2.3992,4.9601,2.4227,5.2653,1
6.5,0.22,-1.6,2.5387,21.491,2.3992,5.5127,2.4596,5.8056,1
6.5,0.08,-0.4,2.4226,21.491,2.399,6.3259,2.3898,6.6243,1
6.5,0.2,-2,2.5107,21.491,2.399,5.9037,1.9541,6.1633,0
6.5,0.08,-0.4,2.4226,21.491,2.3993,5.4887,2.3654,5.787,1
6.5,0.08,-0.4,2.4226,21.491,2.3993,5.0195,2.3918,5.3011,1
6.5,0.02,0.4,2.3786,21.491,2.3995,5.0228,2.5499,5.3225,1
6.5,-0.1275,1.7,2.257,21.491,2.3992,6.3825,2.135,6.7548,1
6.5,-0.12,1.6,2.2625,21.491,2.3993,5.8868,2.2141,6.1111,1
6.5,-0.165,2.2,2.2295,21.491,2.3993,5.1188,2.3962,5.4197,1
6.5,-0.105,1.4,2.2736,21.491,2.3995,5.069,2.3346,5.3477,1
4.5,-1.3,8.4,1.2801,21.492,2.3994,3.4536,0,0,0
4.5,-1.3,8.4,1.2801,21.492,2.3993,3.2969,0,0,0
4.8,0.91,-7.6,3.0636,21.492,2.3992,6.2998,0,0,0
4.8,0.91,-7.6,3.0636,21.492,2.3994,6.129,0,0,0
5.6,1,-10,3.121,21.492,2.3991,5.9289,0,0,0
5.6,1.16,-10,3.2811,21.492,2.3992,5.2498,0,0,0
5.6,1.1,-10,3.221,21.492,2.3992,5.6151,2.2944,5.93,1
5.6,1.16,-10,3.2811,21.492,2.399,5.1051,0,0,0
5.6,1.28,-10,3.401,21.492,2.3992,4.8034,0,0,0
5.6,-0.95,10,1.6301,21.492,2.3991,6.3246,2.8707,6.6806,0
5.6,-1.01,10,1.5702,21.492,2.3992,6.0579,2.3056,6.3132,1
5.6,-0.95,10,1.6301,21.492,2.3992,5.8029,0,0,0
5.6,-1.01,10,1.5701,21.492,2.3992,5.4984,0,0,0
5.6,-1.2,10,1.3801,21.492,2.3995,4.8928,0,0,0
5.6,-1.2,10,1.3801,21.492,2.3995,4.2765,0,0,0
5.6,-1.2,10,1.3802,21.492,2.3993,4.0694,0,0,0
6,0.7,-7.5,2.8892,21.492,2.3994,6.4811,0.9624,6.549,0
6,0.7,-7.5,2.8891,21.492,2.3994,6.3356,0.4179,5.8422,0
6,0.72,-7.5,2.9093,21.492,2.3992,6.6021,1.6238,6.7009,0
6,0.72,-7.5,2.9093,21.492,2.3988,6.3831,1.3653,6.5375,0
6,0.76,-7.5,2.9493,21.492,2.3993,6.5932,2.383,6.8842,1
6,0.76,-7.5,2.9492,21.492,2.3994,6.4134,2.3834,6.6932,1
6,0.76,-7.5,2.9492,21.492,2.3991,6.3208,2.3862,6.6089,1
6,-0.7,7.5,1.812,21.492,2.3991,6.6066,2.1328,6.8651,1
6,-0.7,7.5,1.812,21.492,2.3992,6.5597,2.2825,6.7647,1
6,-0.7,7.5,1.8119,21.492,2.3994,6.3819,2.2207,6.6736,1
6,-0.68,7.5,1.832,21.492,2.3995,6.6637,2.3103,6.9634,1
6,-0.68,7.5,1.832,21.492,2.3996,6.4679,2.3601,6.7647,1
6,-0.68,7.5,1.832,21.492,2.3991,6.3106,2.3878,6.6045,1
6,-0.66,7.5,1.8519,21.492,2.3996,6.5341,2.3964,6.8199,1
6,-0.66,7.5,1.852,21.492,2.3993,6.5042,2.471,6.7963,1
6,-0.66,7.5,1.852,21.492,2.3986,6.4171,2.517,6.7043,1
6,-0.64,7.5,1.872,21.492,2.3991,6.5925,2.8988,6.9925,0
6,-0.64,7.5,1.872,21.492,2.3994,6.432,2.5339,6.7305,1
6,-0.64,7.5,1.872,21.492,2.3991,6.3367,2.9057,6.5926,0
6,0.73,-7.5,2.9193,21.492,2.3991,5.9127,1.389,6.0853,0
6,0.75,-7.5,2.9393,21.492,2.399,6.2326,1.9164,6.5355,0
6,0.77,-7.5,2.9593,21.492,2.3994,6.1768,2.2293,6.465,1
6,0.77,-7.5,2.9592,21.492,2.3996,6.0378,2.1044,6.3634,1
6,0.79,-7.5,2.9792,21.492,2.3991,6.2124,2.4205,6.4947,1
6,0.79,-7.5,2.9792,21.492,2.3993,6.0427,2.4226,6.3509,1
6,-0.71,7.5,1.802,21.492,2.3994,6.2361,2.1836,6.4902,1
6,-0.71,7.5,1.802,21.492,2.3991,6.1664,2.2171,6.4303,1
6,-0.71,7.5,1.802,21.492,2.399,6.0166,2.2374,6.3002,1
6,-0.69,7.5,1.822,21.492,2.3991,6.1196,2.3846,6.4014,1
6,-0.69,7.5,1.822,21.492,2.3995,6.0596,2.3889,6.3415,1
6,-0.65,7.5,1.862,21.492,2.3991,6.0957,2.8626,6.348,0
6,-0.65,7.5,1.862,21.492,2.3991,6.0141,3.2538,6.8834,0
6,0.74,-7.5,2.9292,21.492,2.3988,5.8436,0.6363,6.82,0
6,0.74,-7.5,2.9292,21.492,2.3994,5.6994,1.2111,5.8906,0
6,0.76,-7.5,2.9492,21.492,2.399,5.8573,1.9144,6.0975,0
6,0.78,-7.5,2.9693,21.492,2.3989,5.7571,2.2613,6.0361,1
6,0.8,-7.5,2.9892,21.492,2.399,5.739,2.385,6.0239,1
6,-0.73,7.5,1.782,21.492,2.3993,5.8201,2.0244,6.0568,1
6,-0.73,7.5,1.7819,21.492,2.3987,5.7714,2.2523,6.0559,1
6,-0.71,7.5,1.8019,21.492,2.3994,5.9163,2.2645,6.2039,1
6,-0.71,7.5,1.802,21.492,2.3994,5.809,2.3524,6.1152,1
6,-0.69,7.5,1.822,21.492,2.3995,5.8509,2.3983,6.1359,1
6,-0.67,7.5,1.842,21.492,2.3997,5.8421,2.5213,6.1293,1
6,-0.67,7.5,1.842,21.492,2.3994,5.6156,2.6762,5.902,1
6,0.76,-7.5,2.9492,21.492,2.3994,5.5321,1.4657,6.103,0
6,0.76,-7.5,2.9492,21.492,2.3994,5.3772,1.0806,5.2857,0
6,0.78,-7.5,2.9692,21.492,2.399,5.5302,1.9392,5.8287,0
6,0.78,-7.5,2.9692,21.492,2.3991,5.2646,1.7416,5.7125,0
6,0.8,-7.5,2.9892,21.492,2.3992,5.2219,2.0954,5.4959,1
6,0.82,-7.5,3.0093,21.492,2.3995,5.5351,2.4929,5.8198,1
6,0.82,-7.5,3.0092,21.492,2.3994,5.3975,2.4131,5.6956,1
6,0.82,-7.5,3.0092,21.492,2.3993,5.2551,2.4078,5.5442,1
6,-0.75,7.5,1.7619,21.492,2.399,5.4356,2.1086,5.6799,1
6,-0.75,7.5,1.762,21.492,2.3995,5.2203,2.2204,5.4961,1
6,-0.73,7.5,1.782,21.492,2.3994,5.3351,2.381,5.6298,1
6,-0.71,7.5,1.802,21.492,2.3994,5.4447,2.4212,5.7464,1
6,-0.71,7.5,1.802,21.492,2.3991,5.3164,2.4889,5.5984,1
6,-0.69,7.5,1.822,21.492,2.3994,5.3964,2.7055,5.7449,1
6,-0.69,7.5,1.8219,21.492,2.3992,5.3517,2.6122,5.6254,1
6,-0.69,7.5,1.8219,21.492,2.3995,5.3443,2.7111,5.808,0
6,0.78,-7.5,2.9692,21.492,2.3992,5.1225,1.7155,5.8067,0
6,0.78,-7.5,2.9693,21.492,2.3995,4.9095,1.3076,5.0331,0
6,0.8,-7.5,2.9891,21.492,2.3991,5.1101,1.9884,5.3583,1
6,0.82,-7.5,3.0092,21.492,2.3988,5.1852,2.3955,5.4763,1
6,0.82,-7.5,3.0093,21.492,2.3994,5.0065,2.3704,5.3076,1
6,0.82,-7.5,3.0092,21.492,2.3992,4.9009,2.2667,5.2878,1
6,-0.76,7.5,1.752,21.492,2.3995,5.1582,2.0689,5.4266,1
6,-0.76,7.5,1.7519,21.492,2.3991,5.028,2.3674,5.3246,1
6,-0.76,7.5,1.752,21.492,2.3995,4.894,2.3641,5.1919,1
6,-0.74,7.5,1.772,21.492,2.3991,4.9534,2.3892,5.2423,1
6,-0.74,7.5,1.772,21.492,2.3993,4.8521,2.3995,5.1345,1
6,-0.72,7.5,1.792,21.492,2.3992,5.1672,2.5703,5.4341,1
6,-0.72,7.5,1.792,21.492,2.3992,5.0481,2.415,5.3474,1
6,-0.72,7.5,1.792,21.492,2.3994,5.0253,2.5567,5.3177,1
6,-0.72,7.5,1.792,21.492,2.399,4.8563,2.4716,5.154,1
6,-0.7,7.5,1.812,21.492,2.3992,5.048,2.8047,5.3495,0
6,-0.7,7.5,1.812,21.492,2.3993,4.9952,2.7285,5.2829,1
6,0.8,-7.5,2.9892,21.492,2.3995,4.8166,2.1267,4.9511,1
6,0.82,-7.5,3.0093,21.492,2.3994,4.7835,2.3155,5.0905,1
6,0.84,-7.5,3.0292,21.492,2.3999,4.8595,2.3978,5.1463,1
6,0.84,-7.5,3.0292,21.492,2.3989,4.7044,2.2872,5.055,1
6,0.86,-7.5,3.0492,21.492,2.3996,4.8413,2.4277,5.1254,1
6,0.86,-7.5,3.0492,21.492,2.3993,4.699,2.4351,4.9798,1
6,0.86,-7.5,3.0492,21.492,2.3987,4.5899,2.4284,4.8789,1
6,0.86,-7.5,3.0492,21.492,2.3996,4.6086,2.4029,4.9037,1
6,-0.78,7.5,1.732,21.492,2.399,4.5342,2.352,4.8302,1
6,-0.76,7.5,1.7521,21.492,2.3995,4.8676,2.3589,5.1518,1
6,-0.76,7.5,1.752,21.492,2.3993,4.6232,2.3776,4.9224,1
6,-0.74,7.5,1.7719,21.492,2.3991,4.6013,2.4144,4.9033,1
6,-0.72,7.5,1.7919,21.492,2.3994,4.7665,2.809,5.0889,0
6,-0.72,7.5,1.7919,21.492,2.3991,4.7461,2.8179,5.013,1
6,-0.72,7.5,1.792,21.492,2.3991,4.6666,2.662,4.9663,1
6,0.81,-7.5,2.9993,21.492,2.3992,4.3376,1.3524,4.4724,0
6,0.81,-7.5,2.9992,21.492,2.3991,4.2772,1.1348,5.4589,0
6,0.83,-7.5,3.0192,21.492,2.3996,4.4879,1.997,4.7395,1
6,0.83,-7.5,3.0193,21.492,2.3989,4.2939,1.9846,4.6093,0
6,0.87,-7.5,3.0592,21.492,2.3991,4.249,2.411,4.5421,1
6,-0.8,7.5,1.712,21.492,2.3991,4.1726,2.2472,4.4485,1
6,-0.78,7.5,1.732,21.492,2.3994,4.402,2.3724,4.6871,1
6,-0.76,7.5,1.752,21.492,2.3989,4.4599,2.3961,4.7495,1
6,-0.74,7.5,1.772,21.492,2.3992,4.3512,2.4783,4.6391,1
6,0.85,-7.5,3.0392,21.492,2.3991,4.007,2.2114,4.2883,1
6,0.89,-7.5,3.0793,21.492,2.3995,4.1034,2.4436,4.3939,1
6,-0.82,7.5,1.692,21.492,2.3989,4.1214,2.0642,4.3747,1
6,-0.8,7.5,1.712,21.492,2.3993,4.0831,2.3143,4.3626,1
6,-0.76,7.5,1.752,21.492,2.399,3.9598,2.6086,4.235,1
6,-0.76,7.5,1.752,21.492,2.3991,3.872,2.7791,4.1605,1
6,0.87,-7.5,3.0593,21.492,2.3989,3.78,2.2934,4.0702,1
6,0.89,-7.5,3.0791,21.492,2.399,3.825,2.3798,4.1349,1
6,0.89,-7.5,3.0792,21.492,2.3992,3.5866,2.2544,3.8082,1
6,0.91,-7.5,3.0992,21.492,2.3988,3.5718,2.4594,3.8671,1
6,0.93,-7.5,3.1192,21.492,2.3992,3.7297,2.697,3.9847,1
6,0.93,-7.5,3.1193,21.492,2.3987,3.5104,2.5465,3.7419,1
6,-0.82,7.5,1.692,21.492,2.3996,3.83,2.2249,4.1308,1
6,-0.82,7.5,1.6919,21.492,2.3991,3.5642,2.3686,3.8482,1
6,-0.78,7.5,1.7319,21.492,2.3991,3.5902,2.6496,3.8636,1
6.5,-0.31,3.5,2.1106,21.492,2.3991,5.129,2.2249,5.4141,1
6.5,-0.2375,2.6,2.165,21.492,2.3992,5.5774,2.2286,5.8437,1
6.5,-0.2825,3.2,2.1321,21.492,2.3991,4.6406,2.3786,4.925,1
6.5,-0.2225,2.4,2.176,21.492,2.3992,4.7282,2.1509,4.9291,1
6.5,-0.215,2.3,2.1815,21.492,2.3995,4.2354,2.1896,4.5538,1
6.5,0.3325,-3,2.6232,21.492,2.3994,4.5295,2.3226,4.8213,1
6.5,0.2725,-2.2,2.5792,21.492,2.3996,4.5641,2.4045,4.853,1
6.5,0.325,-2.9,2.6177,21.492,2.3993,4.1279,2.0971,4.391,1
6.5,0.265,-2.1,2.5737,21.492,2.3994,4.1299,2.4068,4.4123,1
6.5,0.33,-2.8,2.6247,21.492,2.3993,5.0219,2.4154,5.3222,1
6.5,0.34,-3.2,2.6267,21.492,2.3989,6.3401,2.4104,6.6283,1
6.5,0.28,-2.4,2.5827,21.492,2.3991,6.3489,2.5108,6.7067,1
6.5,0.22,-1.6,2.5387,21.492,2.3989,6.4234,2.5618,6.6815,1
6.5,0.28,-2.4,2.5827,21.492,2.3993,5.8905,2.4428,6.1824,1
6.5,0.28,-2.4,2.5827,21.492,2.3997,5.4559,2.437,5.7486,1
6.5,0.28,-2.4,2.5827,21.492,2.3993,5.0065,2.3668,5.3231,1
6.5,0.14,-1.2,2.4667,21.492,2.3987,6.4001,2.0249,6.5472,1
6.5,0.2,-2,2.5107,21.492,2.3991,5.0194,1.7378,5.2408,0
6.5,-0.3275,3.125,2.0855,21.492,2.399,6.4178,0,0,0
6.5,-0.32,3,2.0905,21.492,2.3989,5.9121,0,0,0
6.5,-0.3125,2.875,2.0955,21.492,2.3996,5.5466,0,0,0
6.5,-0.305,2.75,2.1005,21.492,2.3993,5.11,0,0,0
6.5,-0.18,2.4,2.2185,21.492,2.399,5.8934,2.415,6.1722,1
6.5,-0.1725,2.3,2.224,21.492,2.3991,5.4742,2.431,5.7708,1
4.5,-1.3,8.4,1.2799,21.493,2.3992,3.7718,0,0,0
4.5,-0.9,5.2,1.5912,21.493,2.3996,3.3148,0,0,0
4.8,0.91,-7.6,3.0636,21.493,2.3992,5.9367,0,0,0
5.6,-0.89,10,1.6901,21.493,2.3993,5.4945,0,0,0
6,0.74,-7.5,2.9294,21.493,2.3994,6.6368,2.3474,6.9307,1
6,0.74,-7.5,2.9293,21.493,2.3993,6.3949,2.1046,6.6611,1
6,-0.7,7.5,1.8119,21.493,2.399,6.3465,2.2507,6.6438,1
6,-0.68,7.5,1.8319,21.493,2.3995,6.5177,2.3361,6.8132,1
6,0.73,-7.5,2.9194,21.493,2.3993,6.0515,1.2616,6.4263,0
6,0.79,-7.5,2.9794,21.493,2.3992,5.9436,2.4258,6.2047,1
6,-0.69,7.5,1.8219,21.493,2.3989,6.2824,2.351,6.5812,1
6,-0.71,7.5,1.8018,21.493,2.3993,5.6048,2.4045,5.9038,1
6,0.76,-7.5,2.9493,21.493,2.3989,5.3435,1.6791,5.639,0
6,0.78,-7.5,2.9693,21.493,2.3995,5.4515,1.9804,5.6708,1
6,0.82,-7.5,3.0093,21.493,2.399,5.3849,2.4125,5.6737,1
6,-0.75,7.5,1.7619,21.493,2.3992,5.3615,2.2513,5.5505,1
6,-0.73,7.5,1.7819,21.493,2.3991,5.2519,2.3853,5.5499,1
6,0.78,-7.5,2.9694,21.493,2.3996,5.2377,1.2118,5.9032,0
6,0.8,-7.5,2.9893,21.493,2.399,5.017,1.6954,5.1387,0
6,-0.74,7.5,1.7719,21.493,2.3995,5.1537,2.3463,5.4579,1
6,-0.74,7.5,1.7719,21.493,2.3993,5.0784,2.3586,5.3703,1
6,-0.76,7.5,1.7519,21.493,2.3993,4.5531,2.3886,4.8363,1
6,-0.74,7.5,1.7718,21.493,2.3992,4.5645,2.4585,4.8628,1
6,0.85,-7.5,3.0393,21.493,2.3993,4.4972,2.3571,4.794,1
6,0.85,-7.5,3.0393,21.493,2.3993,4.2804,2.3757,4.5642,1
6,0.87,-7.5,3.0593,21.493,2.3992,4.2245,2.4092,4.5246,1
6,-0.76,7.5,1.7519,21.493,2.3995,4.4173,2.3941,4.7038,1
6,0.83,-7.5,3.0193,21.493,2.399,3.9266,1.2665,4.1041,0
6,-0.82,7.5,1.6919,21.493,2.3992,4.0028,2.2826,4.2894,1
6,-0.76,7.5,1.7518,21.493,2.3991,4.1264,2.4262,4.4163,1
6,-0.8,7.5,1.7119,21.493,2.3993,3.7875,2.3968,4.0662,1
6.5,-0.3175,3.6,2.1051,21.493,2.3991,5.5542,2.0456,5.7678,1
6.5,-0.275,3.1,2.1375,21.493,2.3991,4.2632,2.3888,4.5555,1
6.5,0.3475,-3.2,2.6342,21.493,2.3992,5.4027,2.3884,5.6899,1
6.5,0.34,-3.1,2.6287,21.493,2.3994,4.9649,2.2545,5.2561,1
6.5,0.33,-2.8,2.6247,21.493,2.3993,6.3784,3.0641,6.4779,0
6.5,0.33,-2.8,2.6247,21.493,2.3989,5.4444,2.4566,5.732,1
6.5,0.34,-3.2,2.6267,21.493,2.3994,5.9768,2.3634,6.2612,1
6.5,0.34,-3.2,2.6267,21.493,2.3994,5.4628,2.357,5.7165,1
6.5,-0.1875,2.5,2.213,21.493,2.3991,6.3838,2.3451,6.6439,1
6.5,-0.24,3.2,2.1745,21.493,2.3991,5.8906,2.4101,6.1809,1
6.5,-0.2325,3.1,2.18,21.493,2.3989,5.4563,2.4538,5.7456,1
4.5,-0.9,5.2,1.5912,21.494,2.3992,3.462,0,0,0
4.7,1.4,-10,3.4845,21.494,2.399,4.388,0,0,0
4.8,0.91,-7.6,3.0638,21.494,2.3994,5.7626,0,0,0
6,-0.67,7.5,1.8418,21.494,2.3994,5.6592,2.957,5.7903,0
6,0.76,-7.5,2.9495,21.494,2.399,5.2774,1.0055,6.0199,0
6,0.82,-7.5,3.0094,21.494,2.3992,4.5932,1.9371,4.8482,0
6,-0.78,7.5,1.7318,21.494,2.3996,4.667,2.1164,4.9173,1
6,-0.74,7.5,1.7717,21.494,2.3988,4.7208,2.3991,5.0104,1
6,-0.78,7.5,1.7318,21.494,2.3989,4.1763,2.3852,4.4586,1
6,0.85,-7.5,3.0395,21.494,2.3995,4.1217,2.0736,4.4186,1
6,-0.84,7.5,1.6718,21.494,2.3991,3.5938,2.1119,3.8402,1
6.5,-0.37,4.3,2.0666,21.494,2.3993,5.1201,2.3794,5.422,1
6.5,-0.3025,3.4,2.116,21.494,2.3993,4.7109,2.3827,4.9992,1
6.5,-0.295,3.3,2.1215,21.494,2.3992,4.3052,2.3854,4.6083,1
6.5,-0.3575,4.2,2.0771,21.494,2.399,5.5885,2.3857,5.8887,1
6.5,-0.2975,3.4,2.121,21.494,2.3993,5.5613,2.3256,5.8084,1
6.5,-0.29,3.3,2.1265,21.494,2.3991,5.1407,2.2496,5.4344,1
6.5,-0.335,3.9,2.0935,21.494,2.3991,4.271,2.6254,4.4837,1
6.5,0.385,-3.7,2.6617,21.494,2.3996,4.1233,1.3364,4.2325,0
6.5,0.33,-2.8,2.6248,21.494,2.3992,5.9383,2.4632,6.2373,1
6.5,0.43,-4.2,2.6966,21.494,2.3991,5.0185,2.0458,5.3194,1
6.5,-0.285,3.8,2.1415,21.494,2.3991,4.9931,2.9208,5.3525,0
6.5,-0.225,3,2.1854,21.494,2.3992,5.0245,2.7503,5.2423,1
6.5,-0.35,4.1,2.0826,21.495,2.399,5.1113,2.3728,5.407,1
6.5,0.4075,-4,2.6782,21.495,2.3991,5.3924,2.2139,5.6933,1
6.5,0.43,-4.2,2.6967,21.495,2.3992,5.9672,2.3028,6.2847,1
6.5,0.4,-4,2.6707,21.495,2.3992,6.3579,2.3805,6.6414,1
6.5,0.4,-4,2.6707,21.495,2.3992,5.5127,1.9673,5.7592,1
6.5,0.4,-4,2.6707,21.495,2.3992,5.0458,1.4207,5.1881,0
6.5,0.34,-3.2,2.6268,21.495,2.3991,5.0042,1.9131,5.1963,0
6.5,-0.38,4,2.0505,21.495,2.3992,5.9433,1.0668,5.9668,0
6.5,-0.2475,3.3,2.1689,21.495,2.3994,6.3574,2.581,6.6176,1
6.5,-0.2925,3.9,2.136,21.495,2.3995,5.4466,2.748,5.681,1
4.7,1.4,-10,3.485,21.496,2.3991,4.2023,0,0,0
6.5,-0.355,4.1,2.0775,21.496,2.3993,4.227,2.5646,4.5011,1
6.5,-0.3425,4,2.0879,21.496,2.3992,4.6831,2.4505,4.9656,1
6.5,0.4,-3.9,2.6728,21.496,2.3994,4.9986,2.2092,5.2829,1
6.5,0.4525,-4.6,2.7112,21.496,2.3994,4.479,0.9708,4.5189,0
6.5,0.3925,-3.8,2.6673,21.496,2.3992,4.4872,1.4506,5.0233,0
6.5,0.445,-4.5,2.7057,21.496,2.3988,4.0862,0,0,0
6.5,0.43,-4.2,2.6967,21.496,2.3991,6.3619,2.4219,6.6263,1
6.5,-0.3875,4.125,2.0455,21.496,2.3993,6.3915,0.745,6.2497,0
6.5,-0.3725,3.875,2.0554,21.496,2.3992,5.571,1.1328,5.6828,0
6.5,-0.3075,4.1,2.125,21.496,2.3992,6.3904,2.5181,6.6978,1
6.5,-0.3,4,2.1305,21.496,2.3994,5.9271,2.7683,6.1818,1
4.6,-0.62,5.4,1.8745,21.497,2.3993,5.4512,0,0,0
4.7,1.4,-10,3.4851,21.497,2.399,4.0598,0,0,0
4.7,1.5,-10,3.585,21.497,2.399,3.5335,0,0,0
4.7,1.5,-10,3.585,21.497,2.399,3.3394,0,0,0
4.8,1.08,-8.2,3.2175,21.497,2.3992,5.4371,0,0,0
6,1.08,-10,3.2142,21.497,2.3991,5.6747,2.4969,5.9662,1
6,1.18,-10,3.3142,21.497,2.399,4.8319,3.8289,4.747,0
6.5,-0.3775,4.4,2.0609,21.497,2.3993,5.5721,2.3131,5.839,1
6.5,-0.3625,4.2,2.072,21.497,2.3994,4.737,2.476,5.041,1
6.5,-0.41,4.9,2.0385,21.497,2.3993,5.0946,2.6815,5.3469,1
6.5,-0.395,4.7,2.0495,21.497,2.3994,4.24,3.201,4.2946,0
6.5,0.46,-4.7,2.7167,21.497,2.3992,4.9315,1.1649,4.9456,0
6.5,0.43,-4.2,2.6968,21.497,2.3992,5.4139,2.1297,5.6922,1
6.5,0.4,-4,2.6708,21.497,2.3988,5.8844,2.2049,6.1653,1
6.5,-0.365,3.75,2.0604,21.497,2.3991,5.0503,1.3951,5.1566,0
6.5,-0.44,5,2.0106,21.497,2.3989,6.5265,1.7413,6.4356,0
6.5,-0.55,5,1.9006,21.497,2.3992,3.404,1.2079,3.5024,0
4.7,1.5,-10,3.5853,21.498,2.3993,3.7003,0,0,0
4.7,1.5,-10,3.5854,21.498,2.3991,3.2361,0,0,0
4.8,1.08,-8.2,3.2179,21.498,2.3992,5.2473,0,0,0
6,1.05,-10,3.1843,21.498,2.3994,6.1274,2.4801,6.4151,1
6,1.08,-10,3.2143,21.498,2.3991,6.1426,3.1671,6.2848,0
6,-0.92,10,1.6469,21.498,2.3993,6.1365,2.5508,6.464,1
6,1.06,-10,3.1944,21.498,2.3992,6.5977,3.1977,6.7102,0
6,-0.82,10,1.7469,21.498,2.3993,6.6052,0,0,0
6,-0.97,10,1.5969,21.498,2.399,6.5602,1.485,6.6607,0
6,1.02,-10,3.1543,21.498,2.3992,5.2574,0.7108,5.8988,0
6,1.04,-10,3.1742,21.498,2.3993,5.2576,1.5086,5.5927,0
6,1.06,-10,3.1943,21.498,2.3992,5.6921,2.3786,5.9895,1
6,-0.99,10,1.5768,21.498,2.3993,5.6963,2.1825,5.9746,1
6,1.07,-10,3.2043,21.498,2.3994,4.8414,1.7361,5.1909,0
6,-0.95,10,1.6169,21.498,2.3994,4.8194,4.1327,5.2445,0
6,1.2,-10,3.3342,21.498,2.399,3.9731,2.7023,4.2614,1
6.5,-0.4375,5.2,2.0171,21.498,2.3992,5.5617,2.4004,5.8584,1
6.5,-0.43,5.1,2.0225,21.498,2.3991,5.1377,2.6384,5.4143,1
6.5,-0.415,4.9,2.0335,21.498,2.3992,4.2818,3.2979,4.2825,0
6.5,-0.4025,4.8,2.044,21.498,2.3988,4.6528,2.7809,4.977,0
6.5,0.4675,-4.8,2.7222,21.498,2.3992,5.3385,1.4556,5.5048,0
6.5,-0.44,5,2.0106,21.498,2.3994,5.8957,2.339,6.1685,1
6.5,-0.4325,4.875,2.0155,21.498,2.3992,5.4701,2.2989,5.7802,1
6.5,-0.425,4.75,2.0205,21.498,2.399,5.011,2.3859,5.3029,1
6.5,-0.46,5,1.9905,21.498,2.3993,6.601,0,0,0
6.5,-0.44,5,2.0106,21.498,2.3993,6.323,2.0924,6.4989,1
6.5,-0.42,5,2.0305,21.498,2.399,6.5596,2.2783,6.8418,1
6.5,-0.42,5,2.0306,21.498,2.3991,6.4819,2.2969,6.7729,1
6.5,-0.42,5,2.0306,21.498,2.3991,6.3493,2.2049,6.6174,1
6.5,-0.4,5,2.0505,21.498,2.3994,6.6006,2.3739,6.9046,1
6.5,-0.4,5,2.0506,21.498,2.3991,6.3912,2.3985,6.6734,1
6.5,-0.55,5,1.9006,21.498,2.3992,3.4278,1.1617,3.1179,0
6.5,-0.53,5,1.9205,21.498,2.3995,3.496,1.7022,3.6593,0
6.5,-0.53,5,1.9206,21.498,2.3991,3.2331,2.0554,3.4144,1
6.5,-0.51,5,1.9405,21.498,2.3991,3.3845,2.3186,3.674,1
6.5,-0.51,5,1.9406,21.498,2.3992,3.2725,2.3757,3.5576,1
6.5,-0.49,5,1.9605,21.498,2.399,3.3838,2.4683,3.6612,1
4.7,1.4,-10,3.4855,21.499,2.3989,4.5299,0,0,0
4.8,1.08,-8.2,3.218,21.499,2.3991,5.0905,0,0,0
4.8,1.08,-8.2,3.218,21.499,2.3992,4.9248,0,0,0
6.5,-0.5125,5.5,1.9481,21.499,2.3992,4.6949,2.3637,4.9688,1
6.5,-0.4175,5,2.0329,21.499,2.3991,5.5617,2.4014,5.8582,1
6.5,0.6175,-5.7,2.854,21.499,2.3989,5.3826,2.6581,5.554,1
6.5,0.53,-5.6,2.7686,21.499,2.399,6.4323,2.3211,6.7194,1
6.5,-0.455,5.4,2.0036,21.499,2.3993,5.0415,2.5114,5.3158,1
6.5,-0.4475,5.125,2.0055,21.499,2.3993,6.4274,1.9568,6.6328,1
6.5,-0.46,5,1.9904,21.499,2.3994,6.4172,0.955,6.3623,0
6.5,-0.46,5,1.9905,21.499,2.399,6.3347,1.0293,6.3323,0
6.5,-0.44,5,2.0105,21.499,2.3992,6.5829,1.7467,6.7932,0
6.5,-0.44,5,2.0105,21.499,2.3993,6.4276,1.5605,6.5863,0
6.5,-0.42,5,2.0305,21.499,2.3992,6.3575,2.3553,6.6502,1
6.5,-0.4,5,2.0505,21.499,2.3994,6.4724,2.4431,6.7701,1
6.5,-0.4,5,2.0505,21.499,2.3989,6.3186,2.492,6.5856,1
6.5,-0.55,5,1.9004,21.499,2.3989,3.2888,1.5289,3.4187,0
6.5,-0.55,5,1.9005,21.499,2.3989,3.208,1.3491,3.4005,0
6.5,-0.53,5,1.9205,21.499,2.3993,3.3809,2.0628,3.544,1
6.5,-0.53,5,1.9204,21.499,2.3991,3.3214,1.8611,3.5632,0
6.5,-0.51,5,1.9405,21.499,2.3995,3.2279,2.3758,3.5102,1
6.5,-0.49,5,1.9604,21.499,2.3992,3.4585,2.3921,3.7558,1
6.5,-0.49,5,1.9604,21.499,2.3992,3.2106,2.5165,3.4478,1
6.5,-0.5275,5.7,1.9371,21.5,2.3994,5.5835,1.885,5.7553,0
6.5,-0.49,5.9,1.9787,21.5,2.3991,5.1435,3.158,5.5413,0
6.5,-0.4225,5,2.0279,21.5,2.3994,4.6862,2.7235,4.8681,1
6.5,0.61,-5.6,2.8486,21.5,2.3996,5.0097,2.4393,5.304,1
6.5,0.6025,-5.5,2.8432,21.5,2.3993,4.4959,2.4046,4.7857,1
6.5,0.595,-5.4,2.8377,21.5,2.3991,4.0672,2.3884,4.3653,1
6.5,0.61,-5.8,2.8446,21.5,2.3993,6.1291,2.6193,6.3813,1
6.5,0.53,-5.6,2.7686,21.5,2.3993,5.8426,1.4319,6.0655,0
6.5,-0.4625,5.5,1.9981,21.5,2.3989,5.4637,2.6392,5.7369,1
6.5,-0.485,5.75,1.9806,21.5,2.3993,5.1009,3.485,5.7405,0
6.5,-0.46,5,1.9904,21.5,2.3993,6.4741,0.9168,5.6366,0
6.5,-0.51,5,1.9404,21.5,2.3995,3.4137,2.1411,3.6595,1
6.5,-0.49,5,1.9604,21.5,2.3992,3.3367,2.3936,3.6327,1
4.6,-0.62,5.4,1.874,21.501,2.3992,5.7219,0,0,0
4.6,-0.62,5.4,1.874,21.501,2.3992,5.1588,0,0,0
4.6,-0.62,5.4,1.874,21.501,2.3992,4.9187,0,0,0
6.5,-0.52,5.6,1.9425,21.501,2.3989,5.1039,2.1076,5.3482,1
6.5,-0.505,5.4,1.9534,21.501,2.399,4.2079,2.4888,4.5596,1
6.5,-0.475,5.7,1.9895,21.501,2.3993,4.2712,3.806,4.202,0
6.5,0.61,-5.8,2.8446,21.501,2.3992,5.721,2.6002,5.9941,1
6.5,0.53,-5.6,2.7687,21.501,2.399,5.0197,0.9868,5.0319,0
6.5,-0.47,5.6,1.9925,21.501,2.3991,5.9239,2.3946,6.225,1
6.5,-0.4925,5.875,1.9756,21.501,2.3995,5.4757,2.6931,5.7429,1
6.5,-0.4975,6,1.973,21.502,2.3994,5.5683,2.521,5.8751,1
6.5,-0.4825,5.8,1.984,21.502,2.3993,4.7534,3.0741,4.9842,0
6.5,0.6775,-6.5,2.8978,21.502,2.3992,5.3164,2.2517,5.5903,1
6.5,0.6625,-6.3,2.887,21.502,2.3993,4.5307,2.2744,4.8157,1
6.5,0.61,-5.8,2.8447,21.502,2.3991,6.6209,3.2389,6.778,0
6.5,0.61,-5.8,2.8447,21.502,2.3992,5.2645,2.3797,5.5596,1
6.5,0.53,-5.6,2.7688,21.502,2.3994,5.4899,0.6877,6.6977,0
6.5,-0.5375,6.5,1.9433,21.502,2.3995,6.3591,2.3936,6.6596,1
6.5,-0.4775,5.7,1.9869,21.502,2.3993,6.3647,2.3812,6.6555,1
4.6,-1.22,9,1.3723,21.503,2.3993,4.9269,0,0,0
6.5,-0.565,6.2,1.9096,21.503,2.3996,4.2687,2.6871,4.5454,1
6.5,0.67,-6.4,2.8925,21.503,2.3992,4.9827,2.2666,5.3576,1
6.5,0.655,-6.2,2.8816,21.503,2.3989,4.099,1.9704,4.3555,1
6.5,-0.5225,6.3,1.9541,21.503,2.3991,5.4529,2.91,5.5979,0
6.5,-0.515,6.2,1.9596,21.503,2.3994,5.0919,3.0953,5.5327,0
6.5,-0.5075,6.125,1.9655,21.503,2.3991,6.3661,2.39,6.659,1
6.5,-0.5,6,1.9705,21.503,2.3989,5.8749,2.5338,6.1731,1
4.8,1.07,-8.8,3.1919,21.504,2.3992,6.2997,0,0,0
4.8,1.16,-8.8,3.2818,21.504,2.3989,5.1993,0,0,0
6.5,-0.5875,6.5,1.8931,21.504,2.3997,5.549,2.3492,5.8343,1
6.5,-0.58,6.4,1.8986,21.504,2.399,5.104,2.3801,5.3931,1
6.5,-0.5725,6.3,1.904,21.504,2.3988,4.6853,2.4015,4.9845,1
6.5,-0.53,6.4,1.9486,21.504,2.399,5.9388,2.4637,6.218,1
4.5,-1.1,6.8,1.4351,21.505,2.3993,3.5181,0,0,0
4.8,1.07,-8.8,3.1921,21.505,2.3994,6.2071,0,0,0
4.8,1.07,-8.8,3.1922,21.505,2.3994,5.8165,0,0,0
5.8,1.18,-10,3.3079,21.505,2.3996,5.4459,3.9378,5.2779,0
4.5,-1.1,6.8,1.4349,21.506,2.399,3.3691,0,0,0
4.7,1.16,-8.2,3.2944,21.506,2.3992,4.4057,0,0,0
4.7,1.26,-8.2,3.3945,21.506,2.3991,3.4657,0,0,0
4.7,1.26,-8.2,3.3945,21.506,2.3993,3.3791,0,0,0
4.8,1.16,-8.8,3.2822,21.506,2.399,4.9018,0,0,0
5.8,1.1,-10,3.228,21.506,2.3991,5.621,2.4173,5.9156,1
5.8,1.1,-10,3.228,21.506,2.3995,5.419,2.3482,5.7124,1
5.8,1.06,-10,3.1881,21.506,2.3991,5.3801,1.7168,5.8278,0
5.8,1.18,-10,3.3081,21.506,2.399,5.2123,3.4769,5.432,0
5.8,1.1,-10,3.2281,21.506,2.3992,5.048,2.1402,5.327,1
5.8,1.17,-10,3.2981,21.506,2.3994,4.7763,2.5113,5.0675,1
5.8,1.21,-10,3.3381,21.506,2.3993,4.5922,0,0,0
5.8,1.17,-10,3.2981,21.506,2.3989,4.4251,0,0,0
5.8,1.17,-10,3.2981,21.506,2.3991,4.198,0,0,0
6,1.05,-10,3.1844,21.506,2.3988,5.4397,2.3057,5.7314,1
6,-0.98,10,1.5868,21.506,2.3992,5.1359,2.6957,5.3871,1
6,-1,10,1.5669,21.506,2.399,4.3053,3.343,4.4825,0
4.7,1.16,-8.2,3.2946,21.507,2.3993,4.5666,0,0,0
4.8,1.07,-8.8,3.1925,21.507,2.3996,5.9392,0,0,0
4.8,1.16,-8.8,3.2825,21.507,2.3994,5.4457,0,0,0
5.8,1.18,-10,3.3082,21.507,2.3989,5.5872,4.5144,4.6227,0
5.8,1.06,-10,3.1882,21.507,2.3991,5.6163,2.1391,5.8944,1
5.8,1.14,-10,3.2682,21.507,2.3992,5.4199,2.8647,5.6708,0
5.8,1.1,-10,3.2282,21.507,2.3996,5.2213,2.2886,5.552,1
5.8,1.18,-10,3.3082,21.507,2.3992,5.1214,2.8419,5.2209,1
5.8,1.14,-10,3.2682,21.507,2.3994,5.0535,2.4908,5.37,1
5.8,1.21,-10,3.3382,21.507,2.3989,4.7273,0,0,0
5.8,1.17,-10,3.2983,21.507,2.399,4.5316,2.4187,4.8109,1
5.8,1.25,-10,3.3783,21.507,2.3993,4.2559,0,0,0
5.8,1.21,-10,3.3383,21.507,2.3991,4.2245,0,0,0
5.8,1.13,-10,3.2582,21.507,2.3994,4.1943,0,0,0
6,1.02,-10,3.1546,21.507,2.3993,6.4059,2.4156,6.6986,1
6,1.04,-10,3.1745,21.507,2.3992,6.5263,2.4725,6.8009,1
6,1.03,-10,3.1646,21.507,2.3992,6.1719,2.3303,6.447,1
6,-0.96,10,1.6068,21.507,2.3991,6.086,2.2324,6.3595,1
6,-0.94,10,1.6267,21.507,2.399,5.6334,2.7681,5.8966,1
6,1.08,-10,3.2145,21.507,2.3993,5.1584,2.3375,5.4418,1
6,1.08,-10,3.2144,21.507,2.3993,4.9696,2.0387,5.2852,1
6,1.08,-10,3.2145,21.507,2.3996,4.9395,2.225,5.2275,1
6,-1.03,10,1.5366,21.507,2.3993,4.8454,2.3329,5.1303,1
6,-1.03,10,1.5367,21.507,2.3992,4.7062,2.3758,4.9917,1
6,-1.01,10,1.5567,21.507,2.3991,4.6739,2.4133,4.9667,1
6,1.1,-10,3.2345,21.507,2.3993,4.4905,2.0616,4.8472,1
6,1.12,-10,3.2545,21.507,2.3991,4.2213,1.9705,4.4411,1
6,-1.06,10,1.5067,21.507,2.3993,4.4084,2.3662,4.6975,1
6,1.16,-10,3.2945,21.507,2.3993,3.9996,2.4067,4.2838,1
6,-1.08,10,1.4867,21.507,2.3995,3.9291,2.4599,4.2017,1
6,-1.06,10,1.5067,21.507,2.3989,4.0382,2.3921,4.3239,1
6,1.16,-10,3.2945,21.507,2.3988,3.8338,2.3523,4.1252,1
6,1.15,-10,3.2846,21.507,2.3993,3.7971,2.2799,4.1412,1
6,1.15,-10,3.2846,21.507,2.3989,3.5804,0,0,0
6,1.17,-10,3.3045,21.507,2.3991,3.4927,0,0,0
6,-1.09,10,1.4767,21.507,2.3989,3.6589,2.3803,3.9346,1
4.6,-0.82,6.6,1.7065,21.508,2.3992,5.1729,0,0,0
4.7,1.16,-8.2,3.2948,21.508,2.3995,4.213,0,0,0
4.7,1.16,-8.2,3.2949,21.508,2.3994,4.0871,0,0,0
4.7,1.26,-8.2,3.3948,21.508,2.3994,3.2226,0,0,0
4.8,1.16,-8.8,3.2827,21.508,2.3995,5.1067,0,0,0
5.8,1.14,-10,3.2684,21.508,2.3992,5.2374,2.5198,5.5233,1
5.8,1.06,-10,3.1883,21.508,2.3992,5.2673,1.6314,5.4793,0
5.8,1.06,-10,3.1884,21.508,2.3992,5.0408,0,0,0
5.8,1.25,-10,3.3784,21.508,2.3993,4.7775,0,0,0
5.8,1.13,-10,3.2583,21.508,2.3991,4.7029,2.2673,4.9818,1
5.8,1.25,-10,3.3785,21.508,2.3993,4.5908,0,0,0
5.8,1.13,-10,3.2583,21.508,2.3988,4.5837,2.173,4.8676,1
5.8,1.25,-10,3.3783,21.508,2.3994,4.434,0,0,0
5.8,1.21,-10,3.3384,21.508,2.3987,4.3506,0,0,0
6,-0.91,10,1.6566,21.508,2.3993,6.5798,2.3593,6.8674,1
6,1,-10,3.1347,21.508,2.3992,6.6181,2.3978,6.9184,1
6,1.02,-10,3.1547,21.508,2.3988,6.3421,2.4121,6.6395,1
6,1.04,-10,3.1747,21.508,2.3992,6.4125,2.6171,6.7119,1
6,1.04,-10,3.1746,21.508,2.3992,6.3045,2.4842,6.5805,1
6,1.06,-10,3.1946,21.508,2.3995,6.438,2.9566,6.7199,0
6,1.06,-10,3.1946,21.508,2.3988,6.3131,3.0663,6.6856,0
6,-0.96,10,1.6066,21.508,2.3991,6.3919,2.1401,6.6637,1
6,-0.94,10,1.6266,21.508,2.3994,6.4976,2.2713,6.7816,1
6,-0.9,10,1.6666,21.508,2.3996,6.4004,2.4434,6.6807,1
6,1.01,-10,3.1446,21.508,2.3994,6.25,2.3757,6.5453,1
6,1.01,-10,3.1446,21.508,2.399,6.0031,2.0917,6.299,1
6,1.03,-10,3.1647,21.508,2.3996,5.9535,2.292,6.2458,1
6,1.05,-10,3.1846,21.508,2.399,6.2112,2.5438,6.549,1
6,1.07,-10,3.2046,21.508,2.3991,6.264,2.8879,6.5268,0
6,-0.98,10,1.5865,21.508,2.3994,6.0256,2.2499,6.2167,1
6,-0.98,10,1.5866,21.508,2.3993,5.9806,2.1227,6.2418,1
6,-0.96,10,1.6065,21.508,2.3995,6.0632,2.177,6.3821,1
6,-0.94,10,1.6266,21.508,2.3992,6.1959,2.378,6.477,1
6,-0.92,10,1.6467,21.508,2.3992,6.1102,2.5111,6.4255,1
6,-0.92,10,1.6466,21.508,2.3991,6.0595,2.5042,6.344,1
6,-0.92,10,1.6466,21.508,2.3992,5.986,2.5656,6.2959,1
6,1.02,-10,3.1546,21.508,2.3993,5.9031,2.178,6.2756,1
6,1.02,-10,3.1547,21.508,2.3994,5.6678,1.9975,5.9342,1
6,1.04,-10,3.1747,21.508,2.3992,5.5852,2.2466,5.874,1
6,1.06,-10,3.1946,21.508,2.3993,5.6746,2.411,5.9635,1
6,1.08,-10,3.2146,21.508,2.3993,5.8255,2.5921,6.0988,1
6,-1,10,1.5666,21.508,2.3993,5.8506,1.5608,5.973,0
6,-1,10,1.5666,21.508,2.3989,5.7839,1.7327,6.0314,0
6,-0.98,10,1.5866,21.508,2.399,5.5638,2.3693,5.8618,1
6,-0.96,10,1.6066,21.508,2.3989,5.8813,2.4063,6.1219,1
6,-0.94,10,1.6266,21.508,2.3994,5.7173,2.4529,6.0353,1
6,1.03,-10,3.1646,21.508,2.399,5.5484,1.7194,5.8067,0
6,1.03,-10,3.1646,21.508,2.3991,5.4555,1.5912,6.4733,0
6,1.05,-10,3.1847,21.508,2.3993,5.2814,2.1363,5.5228,1
6,1.09,-10,3.2246,21.508,2.3992,5.3931,2.4564,5.6713,1
6,-1.03,10,1.5366,21.508,2.3987,5.3219,1.6784,5.4487,0
6,-1.01,10,1.5566,21.508,2.3992,5.4938,2.0786,5.6961,1
6,-1.01,10,1.5566,21.508,2.3991,5.3282,2.1133,5.5804,1
6,-0.99,10,1.5766,21.508,2.3994,5.3657,2.3779,5.6571,1
6,1.04,-10,3.1746,21.508,2.3992,5.1606,1.1942,6.0306,0
6,1.06,-10,3.1946,21.508,2.3991,5.206,2.2842,5.4838,1
6,1.08,-10,3.2146,21.508,2.3995,5.1028,2.355,5.3922,1
6,1.1,-10,3.2346,21.508,2.3993,5.1996,2.4309,5.4841,1
6,1.1,-10,3.2346,21.508,2.3992,5.007,2.2574,5.2661,1
6,-1.04,10,1.5266,21.508,2.3993,5.181,1.8932,5.382,0
6,-1.02,10,1.5466,21.508,2.3992,5.1025,2.3581,5.3973,1
6,-1.02,10,1.5466,21.508,2.3988,4.9014,2.3526,5.1852,1
6,-1,10,1.5666,21.508,2.3995,5.1709,2.38,5.457,1
6,-1,10,1.5666,21.508,2.399,4.98,2.3933,5.2715,1
6,-1,10,1.5665,21.508,2.3994,4.931,2.4984,5.2173,1
6,-0.98,10,1.5865,21.508,2.3996,5.0416,2.6772,5.3403,1
6,1.06,-10,3.1947,21.508,2.3995,4.8491,1.3892,4.9487,0
6,1.06,-10,3.1946,21.508,2.3991,4.6325,0.8611,5.7373,0
6,1.08,-10,3.2147,21.508,2.3993,4.7817,1.9658,5.0362,0
6,1.08,-10,3.2147,21.508,2.3992,4.6282,1.5853,5.452,0
6,1.12,-10,3.2546,21.508,2.3995,4.8293,2.4192,5.1196,1
6,-1.05,10,1.5166,21.508,2.3993,4.5744,2.3605,4.8661,1
6,-1.01,10,1.5566,21.508,2.3991,4.7975,2.4832,5.0713,1
6,-0.99,10,1.5766,21.508,2.3995,4.5769,3.0319,4.8702,0
6,1.08,-10,3.2147,21.508,2.3994,4.4917,1.2738,4.6259,0
6,1.08,-10,3.2147,21.508,2.3991,4.3946,0.741,5.0997,0
6,1.1,-10,3.2346,21.508,2.399,4.2583,1.3596,4.7837,0
6,1.12,-10,3.2547,21.508,2.3993,4.4703,2.2987,4.7821,1
6,-1.06,10,1.5066,21.508,2.3992,4.5232,2.2133,4.7608,1
6,-1.04,10,1.5266,21.508,2.3992,4.4041,2.3873,4.7018,1
6,-1.04,10,1.5265,21.508,2.3995,4.3265,2.4803,4.6156,1
6,-1.02,10,1.5465,21.508,2.3992,4.4075,2.5449,4.6949,1
6,-1,10,1.5666,21.508,2.3996,4.4683,2.7909,4.6527,1
6,-1,10,1.5666,21.508,2.3992,4.3903,3.068,4.6204,0
6,1.14,-10,3.2746,21.508,2.3992,4.1329,2.245,4.4387,1
6,1.14,-10,3.2746,21.508,2.3992,3.9382,2.1063,4.2189,1
6,1.14,-10,3.2746,21.508,2.399,3.8897,2.0499,4.171,1
6,-1.08,10,1.4866,21.508,2.3991,4.0839,2.2747,4.3628,1
6,-1.06,10,1.5066,21.508,2.3993,4.0132,2.411,4.3029,1
6,-1.06,10,1.5066,21.508,2.3993,3.903,2.592,4.1329,1
6,-1.04,10,1.5266,21.508,2.3995,3.979,2.9487,4.3098,0
6,1.12,-10,3.2547,21.508,2.3993,3.7936,0,0,0
6,1.12,-10,3.2546,21.508,2.3992,3.6007,0,0,0
6,1.12,-10,3.2546,21.508,2.3992,3.5706,0,0,0
6,1.14,-10,3.2747,21.508,2.3996,3.7449,1.9906,4.0005,1
6,1.16,-10,3.2946,21.508,2.399,3.7247,2.306,4.0302,1
6,1.18,-10,3.3147,21.508,2.3994,3.6977,2.4087,3.9892,1
6,1.18,-10,3.3146,21.508,2.399,3.5333,0,0,0
6,1.15,-10,3.2847,21.508,2.3992,3.615,0,0,0
6,1.17,-10,3.3047,21.508,2.399,3.8093,2.345,4.1381,1
6,1.19,-10,3.3246,21.508,2.3993,3.63,2.3071,3.8636,1
6,1.19,-10,3.3246,21.508,2.3993,3.5664,2.3816,3.8594,1
6,1.21,-10,3.3446,21.508,2.3993,3.5705,2.4396,3.851,1
6,-1.11,10,1.4566,21.508,2.3997,3.7685,2.3507,4.0425,1
6,-1.07,10,1.4965,21.508,2.3994,3.4993,2.6381,3.7767,1
6,-1.05,10,1.5165,21.508,2.3992,3.7215,2.8977,3.9439,0
6,-1.05,10,1.5166,21.508,2.3997,3.6508,0,0,0
4.5,-1.22,10,1.4054,21.509,2.3994,4.7592,0,0,0
4.5,-1.34,10,1.2852,21.509,2.3992,4.4946,0,0,0
4.6,-0.82,6.6,1.7064,21.509,2.399,5.6895,0,0,0
4.6,-0.82,6.6,1.7063,21.509,2.3988,5.406,0,0,0
4.7,1.26,-8.2,3.395,21.509,2.3992,3.7742,0,0,0
4.8,1.24,-9.4,3.3458,21.509,2.3993,5.2174,0,0,0
5.8,1.14,-10,3.2686,21.509,2.3994,5.586,3.2465,5.692,0
5.8,1.13,-10,3.2586,21.509,2.3991,4.403,0,0,0
4.5,-1.34,10,1.2852,21.51,2.3996,4.768,0,0,0
4.5,-1.12,10,1.505,21.511,2.3993,5.9831,0,0,0
4.5,-1.18,10,1.445,21.511,2.3989,5.4112,0,0,0
4.5,-1.12,10,1.505,21.511,2.3992,5.413,0,0,0
4.5,-1.34,10,1.2849,21.511,2.399,5.0018,0,0,0
4.5,-1.28,10,1.3451,21.511,2.399,4.6862,0,0,0
4.5,-1.28,10,1.3449,21.511,2.3995,4.2345,0,0,0
4.5,-1.22,10,1.4048,21.511,2.3991,4.22,0,0,0
4.5,-1.5,10,1.125,21.511,2.399,3.5111,0,0,0
4.5,-1.5,10,1.1249,21.511,2.3992,3.3208,0,0,0
4.6,-0.82,6.6,1.7062,21.511,2.3994,4.9245,0,0,0
4.8,1.24,-9.4,3.3462,21.511,2.3995,5.5135,0,0,0
4.8,1.24,-9.4,3.3462,21.511,2.3988,4.8792,0,0,0
4.5,-1.18,10,1.4447,21.512,2.3993,6.2589,2.1511,2.9609,0
4.5,-1.18,10,1.4447,21.512,2.3993,5.9851,0,0,0
4.5,-1.24,10,1.3847,21.512,2.3992,5.6686,0,0,0
4.5,-1.18,10,1.4447,21.512,2.3993,5.7658,0,0,0
4.5,-1.3,10,1.3248,21.512,2.3992,5.4514,0,0,0
4.5,-1.24,10,1.3848,21.512,2.3992,5.4438,0,0,0
4.5,-1.4,10,1.2247,21.512,2.3994,4.4921,0,0,0
4.5,-1.22,10,1.4048,21.512,2.3987,4.4211,0,0,0
4.5,-1.4,10,1.2248,21.512,2.3991,4.1993,0,0,0
4.5,-1.34,10,1.2849,21.512,2.3988,4.2398,0,0,0
4.5,-1.5,10,1.1248,21.512,2.3994,3.8752,0,0,0
4.7,1.24,-8.8,3.3584,21.512,2.3989,4.5485,0,0,0
4.7,1.34,-8.8,3.4583,21.512,2.3993,3.5757,0,0,0
4.5,-1.12,10,1.5046,21.513,2.3994,5.6813,0,0,0
4.5,-1.22,10,1.4045,21.513,2.3987,4.9553,0,0,0
4.5,-1.28,10,1.3445,21.513,2.3991,4.4136,0,0,0
4.5,-1.5,10,1.1246,21.513,2.3997,3.6541,0,0,0
4.7,1.34,-8.8,3.4585,21.513,2.3993,3.7812,0,0,0
4.8,1.24,-9.4,3.3465,21.513,2.3991,5.1003,0,0,0
4.5,-1.12,10,1.5042,21.514,2.3993,6.188,2.7602,3.0214,0
4.5,-1.28,10,1.3444,21.514,2.3991,4.9752,0,0,0
4.7,1.24,-8.8,3.3587,21.514,2.3996,4.269,0,0,0
4.7,1.34,-8.8,3.4587,21.514,2.3992,3.3792,0,0,0
4.8,0.75,-6.4,2.9358,21.514,2.3989,5.7757,0,0,0
4.7,1.24,-8.8,3.3588,21.515,2.399,4.3711,0,0,0
4.7,1.24,-8.8,3.3588,21.515,2.3995,4.0828,0,0,0
4.7,1.34,-8.8,3.4589,21.515,2.3991,3.2159,0,0,0
4.8,0.75,-6.4,2.9359,21.515,2.3991,6.318,0,0,0
4.8,0.75,-6.4,2.9359,21.515,2.3998,5.97,0,0,0
